Time,TimeLsl,Value
1654002930,78012,161483,5923245,63
1654002930,78012,161483,5923488,56
1654002930,78012,161483,5923594,56
1654002930,78012,161483,5923686,73
1654002930,78012,161483,5923782,80
1654002930,78012,161483,5923864,73
1654002930,78012,161483,5923956,75
1654002930,78012,161483,5924062,70
1654002930,78012,161483,592413,46
1654002930,78012,161483,5924212,41
1654002930,78012,161483,5924308,58
1654002930,78012,161483,5924393,58
1654002930,78012,161483,5924477,61
1654002930,78012,161483,5924536,68
1654002930,78012,161483,5924626,66
1654002930,78012,161483,5924726,68
1654002930,78012,161483,592483,80
1654002930,78012,161483,5924921,85
1654002930,78012,161483,5924998,100
1654002930,78012,161483,5925112,117
1654002930,78012,161483,5925204,107
1654002930,78012,161483,5925257,88
1654002930,78012,161483,592534,85
1654002930,78012,161483,5925382,80
1654002930,78012,161483,5925445,73
1654002930,78012,161483,5925539,68
1654002930,78012,161483,5925614,75
1654002930,78012,161483,5925706,92
1654002930,78012,161483,5925771,122
1654002930,78012,161483,5925844,224
1654002930,78012,161483,5925932,520
1654002930,78012,161483,5926026,858
1654002930,78012,161483,5926077,770
1654002930,78012,161483,5926166,92
1654002930,78012,161483,592626,-498
1654002930,78012,161483,5926354,-401
1654002930,78012,161483,5926425,-90
1654002930,78012,161483,5926512,4
1654002930,78012,161483,5926584,58
1654002930,78012,161483,5926692,92
1654002930,78012,161483,5926767,73
1654002930,78012,161483,5926838,88
1654002930,78012,161483,5926878,112
1654002930,78012,161483,5926946,107
1654002930,78012,161483,592702,107
1654002930,78012,161483,5927092,114
1654002930,78012,161483,5927167,110
1654002930,78012,161483,5927206,107
1654002930,78012,161483,5927263,129
1654002930,78012,161483,5927336,141
1654002930,85393,161483,5927411,136
1654002930,85393,161483,5927458,146
1654002930,85393,161483,5927523,173
1654002930,85393,161483,5927622,202
1654002930,85393,161483,5927712,234
1654002930,85393,161483,5927809,254
1654002930,85393,161483,5927892,281
1654002930,85393,161483,5927968,315
1654002930,85393,161483,5928058,332
1654002930,85393,161483,5928123,332
1654002930,85393,161483,5928182,332
1654002930,85393,161483,5928255,320
1654002930,85393,161483,5928327,278
1654002930,85393,161483,5928422,222
1654002930,85393,161483,5928469,161
1654002930,85393,161483,5928542,102
1654002930,85393,161483,5928636,58
1654002930,85393,161483,59287,24
1654002930,85393,161483,5928784,-2
1654002930,85393,161483,5928874,-14
1654002930,85393,161483,5928966,-19
1654002930,85393,161483,5929037,-19
1654002930,85393,161483,5929116,-17
1654002930,85393,161484,1776028,-17
1654002930,94868,161484,1776286,-12
1654002930,94868,161484,1776349,-2
1654002930,94868,161484,1776405,12
1654002930,94868,161484,1776452,17
1654002930,94868,161484,1776504,2
1654002930,94868,161484,177654,-9
1654002930,94868,161484,1776591,-4
1654002930,94868,161484,1776627,7
1654002930,94868,161484,1776662,17
1654002930,94868,161484,1776695,17
1654002930,94868,161484,1776729,17
1654002930,94868,161484,1776764,24
1654002930,94868,161484,1776794,34
1654002930,94868,161484,1776845,34
1654002930,94868,161484,1776922,31
1654002930,94868,161484,1777005,26
1654002930,94868,161484,1777041,26
1654002930,94868,161484,1777081,29
1654002930,94868,161484,1777118,24
1654002930,94868,161484,1777156,24
1654002930,94868,161484,1777196,39
1654002930,94868,161484,1777233,41
1654002930,94868,161484,1777453,24
1654002930,94868,161484,1777565,31
1654002930,94868,161484,1777647,46
1654002930,94868,161484,1777908,44
1654002930,94868,161484,1777982,36
1654002930,94868,161484,1778026,34
1654002930,94868,161484,1778059,36
1654002930,94868,161484,1778532,46
1654002930,94868,161484,1778687,56
1654002930,94868,161484,1778768,58
1654002930,94868,161484,1778808,56
1654002930,94868,161484,177887,68
1654002930,94868,161484,1778913,90
1654002930,94868,161484,1778971,85
1654002930,94868,161484,1779043,73
1654002930,94868,161484,1779084,70
1654002930,94868,161484,1779485,66
1654002930,94868,161484,1779621,58
1654002930,94868,161484,1779725,48
1654002930,94868,161484,1779809,39
1654002930,94868,161484,1779911,39
1654002930,94868,161484,1779997,48
1654002930,94868,161484,1780329,48
1654002930,94868,161484,1780409,41
1654002930,94868,161484,1780459,80
1654002930,94868,161484,1780598,256
1654002930,94868,161484,1780709,606
1654002930,94868,161484,1780793,882
1654002930,95666,161484,1780889,606
1654002930,95666,161484,1780978,-168
1654002930,95666,161484,1781102,-577
1654002930,95666,161484,1781368,-322
1654002930,95666,161484,178151,-58
1654002930,95666,161484,1781763,0
1654002930,95666,161484,1781911,58
1654002930,95666,161484,1782151,85
1654002930,95666,161484,1782319,70
1654002930,95666,161484,1782468,85
1654002930,95666,161484,1782611,92
1654002930,95666,161484,1782742,80
1654002930,95666,161484,178288,88
1654002930,95666,161484,1782994,100
1654002930,95666,161484,1783104,107
1654002930,95666,161484,17832,127
1654002930,95666,161484,1783253,129
1654002930,95666,161484,178333,132
1654002930,95666,161484,1783386,158
1654002930,95666,161484,1783444,178
1654002930,95666,161484,1783487,190
1654002930,95666,161484,1783544,212
1654002930,95666,161484,7626928,232
1654002930,95666,161484,76271,259
1654002931,49882,161484,7627148,291
1654002931,49882,161484,7627198,313
1654002931,49882,161484,7627221,332
1654002931,49882,161484,7627246,347
1654002931,49882,161484,7627289,342
1654002931,49882,161484,7627372,320
1654002931,49882,161484,762744,271
1654002931,49882,161484,7627476,188
1654002931,49882,161484,7627511,107
1654002931,49882,161484,7627555,53
1654002931,49882,161484,762759,17
1654002931,49882,161484,7627638,0
1654002931,49882,161484,7627685,-17
1654002931,49882,161484,7627724,-34
1654002931,49882,161484,7627759,-34
1654002931,49882,161484,7627799,-34
1654002931,49882,161484,7627857,-39
1654002931,49882,161484,7627912,-22
1654002931,49882,161484,7627946,-9
1654002931,49882,161484,762801,-7
1654002931,49882,161484,7628086,4
1654002931,49882,161484,7628164,19
1654002931,49882,161484,7628238,19
1654002931,49882,161484,7628309,19
1654002931,49882,161484,7628383,24
1654002931,49882,161484,7628465,24
1654002931,49882,161484,7628541,29
1654002931,49882,161484,7628668,44
1654002931,49882,161484,7628742,56
1654002931,49882,161484,7628851,44
1654002931,49882,161484,7628938,39
1654002931,49882,161484,7629029,51
1654002931,49882,161484,7629122,44
1654002931,49882,161484,7629211,29
1654002931,49882,161484,7629304,34
1654002931,49882,161484,7629371,46
1654002931,49882,161484,7629471,48
1654002931,49882,161484,7629539,46
1654002931,49882,161484,7629614,46
1654002931,49882,161484,7629708,41
1654002931,49882,161484,7629811,44
1654002931,49882,161484,762988,51
1654002931,49882,161484,7629944,53
1654002931,49882,161484,7630017,51
1654002931,49882,161484,7630114,51
1654002931,49882,161484,7630197,53
1654002931,49882,161484,7630285,66
1654002931,49882,161484,7630354,85
1654002931,49882,161484,7630447,85
1654002931,49882,161484,763052,78
1654002931,5068,161484,7630611,92
1654002931,5068,161484,7630689,112
1654002931,5068,161484,7630788,112
1654002931,5068,161484,7630863,90
1654002931,5068,161484,7630958,78
1654002931,5068,161484,7631056,95
1654002931,5068,161484,7631152,97
1654002931,5068,161484,7631256,75
1654002931,5068,161484,7631348,73
1654002931,5068,161484,7631443,83
1654002931,5068,161484,763154,83
1654002931,5068,161484,7631635,78
1654002931,5068,161484,7631712,80
1654002931,5068,161484,7631797,119
1654002931,5068,161484,7631859,286
1654002931,5068,161484,7631906,626
1654002931,5068,161484,7631988,887
1654002931,5068,161484,7632078,596
1654002931,5068,161484,763216,-156
1654002931,5068,161484,7632258,-520
1654002931,5068,161484,7632309,-249
1654002931,5068,161485,3025696,7
1654002931,5068,161485,3025889,41
1654002931,5068,161485,302594,70
1654002932,02158,161485,3025988,97
1654002932,02158,161485,3026017,95
1654002932,02158,161485,3026052,97
1654002932,02158,161485,302608,102
1654002932,02158,161485,3026108,105
1654002932,02158,161485,3026148,114
1654002932,02158,161485,3026239,119
1654002932,02158,161485,3026295,119
1654002932,02158,161485,3026338,117
1654002932,02158,161485,3026424,107
1654002932,02158,161485,3026508,112
1654002932,02158,161485,3026564,132
1654002932,02158,161485,3026679,146
1654002932,02158,161485,3026781,158
1654002932,02158,161485,3026849,183
1654002932,02158,161485,3026922,212
1654002932,02158,161485,3027,237
1654002932,02158,161485,3027079,266
1654002932,02158,161485,302716,303
1654002932,02158,161485,3027231,327
1654002932,02158,161485,3027386,322
1654002932,02158,161485,3027506,308
1654002932,02158,161485,3027618,295
1654002932,02158,161485,3027714,259
1654002932,02158,161485,3027846,193
1654002932,02158,161485,302796,114
1654002932,02158,161485,302806,53
1654002932,02158,161485,3028144,12
1654002932,02158,161485,3028243,-17
1654002932,02158,161485,302833,-31
1654002932,02158,161485,3028471,-24
1654002932,02158,161485,3028619,-26
1654002932,02158,161485,3028774,-39
1654002932,02158,161485,3028894,-34
1654002932,02158,161485,3029062,-22
1654002932,02158,161485,302922,-17
1654002932,02158,161485,3029365,-12
1654002932,02158,161485,3029508,-2
1654002932,02158,161485,3029601,4
1654002932,02158,161485,302975,17
1654002932,02158,161485,3029866,19
1654002932,02158,161485,3029958,22
1654002932,02158,161485,3030064,29
1654002932,02158,161485,3030205,41
1654002932,02158,161485,3030311,41
1654002932,02158,161485,3030412,36
1654002932,02158,161485,3030509,39
1654002932,02158,161485,3030567,44
1654002932,02158,161485,3030655,51
1654002932,02158,161485,3030747,53
1654002932,02953,161485,3030825,48
1654002932,02953,161485,3030926,46
1654002932,02953,161485,3031,53
1654002932,02953,161485,3031095,63
1654002932,02953,161485,3031216,66
1654002932,02953,161485,3031309,61
1654002932,02953,161485,3031413,58
1654002932,02953,161485,3031522,63
1654002932,02953,161485,3031608,73
1654002932,02953,161485,3031703,78
1654002932,02953,161485,30318,73
1654002932,02953,161485,3031876,75
1654002932,02953,161485,303193,80
1654002932,02953,161485,3032002,80
1654002932,02953,161485,3032051,90
1654002932,02953,161485,3032151,100
1654002932,02953,161485,3032218,100
1654002932,02953,161485,3032293,117
1654002932,02953,161485,3032356,136
1654002932,02953,161485,3032439,127
1654002932,02953,161485,8426754,97
1654002932,02953,161485,8426982,85
1654002932,02953,161485,8427172,90
1654002932,02953,161485,8427331,75
1654002932,60366,161485,8427463,73
1654002932,60366,161485,8427543,95
1654002932,60366,161485,8427611,102
1654002932,60366,161485,8427674,90
1654002932,60366,161485,8427738,92
1654002932,60366,161485,842781,149
1654002932,60366,161485,842789,359
1654002932,60366,161485,8427961,726
1654002932,60366,161485,8428034,873
1654002932,60366,161485,8428104,386
1654002932,60366,161485,8428178,-332
1654002932,60366,161485,8428255,-476
1654002932,60366,161485,8428338,-168
1654002932,60366,161485,8428415,14
1654002932,60366,161485,8428493,53
1654002932,60366,161485,8428557,73
1654002932,60366,161485,8428643,63
1654002932,60366,161485,8428753,68
1654002932,60366,161485,8428896,83
1654002932,60366,161485,8429041,88
1654002932,60366,161485,8429149,95
1654002932,60366,161485,8429229,95
1654002932,60366,161485,8429303,97
1654002932,60366,161485,8429356,114
1654002932,60366,161485,8429409,124
1654002932,60366,161485,8429499,119
1654002932,60366,161485,8429594,124
1654002932,60366,161485,8429727,146
1654002932,60366,161485,8429869,166
1654002932,60366,161485,8430016,176
1654002932,60366,161485,8430111,195
1654002932,60366,161485,8430137,224
1654002932,60366,161485,8430231,264
1654002932,60366,161485,8430325,305
1654002932,60366,161485,843046,320
1654002932,60366,161485,8430609,315
1654002932,60366,161485,8430702,325
1654002932,60366,161485,8430728,330
1654002932,60366,161485,8430765,291
1654002932,60366,161485,8430785,232
1654002932,60366,161485,8430807,178
1654002932,60366,161485,8430829,117
1654002932,60366,161485,8430852,56
1654002932,60366,161485,8430873,26
1654002932,60366,161485,8430894,4
1654002932,60366,161485,8430916,-24
1654002932,60366,161485,8430937,-31
1654002932,60366,161485,8430958,-14
1654002932,60366,161485,843098,-14
1654002932,60366,161485,8431002,-17
1654002932,61463,161485,8431023,-12
1654002932,61463,161485,8431044,-4
1654002932,61463,161485,8431066,0
1654002932,61463,161485,8431087,9
1654002932,61463,161485,8431109,12
1654002932,61463,161485,843113,14
1654002932,61463,161485,8431152,19
1654002932,61463,161485,8431173,14
1654002932,61463,161485,8431194,17
1654002932,61463,161485,8431215,26
1654002932,61463,161485,8431236,24
1654002932,61463,161485,8431257,24
1654002932,61463,161485,8431286,34
1654002932,61463,161485,8431377,31
1654002932,61463,161485,8431474,29
1654002932,61463,161485,8431607,29
1654002932,61463,161485,8431747,31
1654002932,61463,161485,8431897,34
1654002932,61463,161485,843204,24
1654002932,61463,161486,4278937,17
1654002932,61463,161486,4279236,26
1654002932,61463,161486,4279396,36
1654002932,61463,161486,4279538,34
1654002932,61463,161486,4279675,29
1654002933,14123,161486,4279794,34
1654002933,14123,161486,4279848,31
1654002933,14123,161486,4279893,19
1654002933,14123,161486,4279952,12
1654002933,14123,161486,428004,9
1654002933,14123,161486,4280144,17
1654002933,14123,161486,4280226,34
1654002933,14123,161486,4280303,34
1654002933,14123,161486,4280381,34
1654002933,14123,161486,4280445,41
1654002933,14123,161486,4280518,29
1654002933,14123,161486,4280564,9
1654002933,14123,161486,4280618,4
1654002933,14123,161486,4280664,0
1654002933,14123,161486,4280706,14
1654002933,14123,161486,4280768,29
1654002933,14123,161486,428083,12
1654002933,14123,161486,4280908,2
1654002933,14123,161486,4280949,29
1654002933,14123,161486,4281021,105
1654002933,14123,161486,4281088,315
1654002933,14123,161486,4281235,694
1654002933,14123,161486,4281342,961
1654002933,14123,161486,428145,604
1654002933,14123,161486,4281557,-251
1654002933,14123,161486,4281675,-635
1654002933,14123,161486,4281757,-330
1654002933,14123,161486,4281852,-83
1654002933,14123,161486,4281931,-31
1654002933,14123,161486,4282017,56
1654002933,14123,161486,4282153,73
1654002933,14123,161486,4282262,22
1654002933,14123,161486,4282359,36
1654002933,14123,161486,4282502,68
1654002933,14123,161486,4282642,68
1654002933,14123,161486,4282776,75
1654002933,14123,161486,4282927,83
1654002933,14123,161486,4283075,83
1654002933,14123,161486,4283223,97
1654002933,14123,161486,4283344,119
1654002933,14123,161486,428348,141
1654002933,14123,161486,428362,149
1654002933,14123,161486,4283711,136
1654002933,14123,161486,4283772,154
1654002933,14123,161486,42839,205
1654002933,14123,161486,4284037,234
1654002933,14123,161486,4284178,244
1654002933,14123,161486,4284328,276
1654002933,14123,161486,4284475,303
1654002933,14123,161486,4284617,303
1654002933,15799,161486,4284747,305
1654002933,15799,161486,4284848,313
1654002933,15799,161486,4284979,291
1654002933,15799,161486,4285091,237
1654002933,15799,161486,4285177,161
1654002933,15799,161486,4285264,83
1654002933,15799,161486,4285329,19
1654002933,15799,161486,4285435,-14
1654002933,15799,161486,4285553,-39
1654002933,15799,161486,4285667,-53
1654002933,15799,161486,4285766,-56
1654002933,15799,161486,4285847,-61
1654002933,15799,161486,4285933,-70
1654002933,15799,161486,4286016,-58
1654002933,15799,161486,428609,-41
1654002933,15799,161486,4286131,-48
1654002933,15799,161486,4286167,-53
1654002933,15799,161486,4286212,-36
1654002933,15799,161486,9676018,-26
1654002933,15799,161486,9676222,-17
1654002933,15799,161486,9676255,-14
1654002933,15799,161486,9676281,-14
1654002933,15799,161486,9676306,-17
1654002933,15799,161486,9676331,-22
1654002933,68964,161486,9676354,-22
1654002933,68964,161486,9676382,-24
1654002933,68964,161486,9676404,-26
1654002933,68964,161486,9676426,-36
1654002933,68964,161486,9676449,-48
1654002933,68964,161486,9676472,-51
1654002933,68964,161486,9676494,-48
1654002933,68964,161486,9676516,-46
1654002933,68964,161486,967654,-41
1654002933,68964,161486,9676568,-39
1654002933,68964,161486,9676601,-39
1654002933,68964,161486,9676816,-36
1654002933,68964,161486,9676874,-29
1654002933,68964,161486,9676943,-24
1654002933,68964,161486,9677027,-31
1654002933,68964,161486,9677087,-39
1654002933,68964,161486,9677164,-29
1654002933,68964,161486,9677327,-2
1654002933,68964,161486,9677491,19
1654002933,68964,161486,9677568,19
1654002933,68964,161486,9677632,-4
1654002933,68964,161486,9677687,-24
1654002933,68964,161486,9677767,-26
1654002933,68964,161486,9677831,-24
1654002933,68964,161486,9677906,-22
1654002933,68964,161486,9677958,-14
1654002933,68964,161486,9678005,-14
1654002933,68964,161486,9678072,-26
1654002933,68964,161486,9678137,-17
1654002933,68964,161486,9678205,70
1654002933,68964,161486,9678255,298
1654002933,68964,161486,967832,682
1654002933,68964,161486,9678368,921
1654002933,68964,161486,9678433,518
1654002933,68964,161486,9678493,-330
1654002933,68964,161486,9678556,-665
1654002933,68964,161486,967861,-354
1654002933,68964,161486,9678679,-141
1654002933,68964,161486,9678727,-112
1654002933,68964,161486,9678773,-7
1654002933,68964,161486,967882,36
1654002933,68964,161486,967885,-4
1654002933,68964,161486,9678881,2
1654002933,68964,161486,9678927,31
1654002933,68964,161486,9678958,29
1654002933,68964,161486,9678988,36
1654002933,68964,161486,9679018,53
1654002933,68964,161486,9679047,56
1654002933,68964,161486,9679076,61
1654002933,68964,161486,9679119,75
1654002933,7016,161486,9679163,83
1654002933,7016,161486,967919,95
1654002933,7016,161486,9679219,114
1654002933,7016,161486,9679247,132
1654002933,7016,161486,9679277,154
1654002933,7016,161486,9679306,190
1654002933,7016,161486,9679334,220
1654002933,7016,161486,9679364,244
1654002933,7016,161486,9679392,266
1654002933,7016,161486,9679424,278
1654002933,7016,161486,9679467,283
1654002933,7016,161486,9679494,271
1654002933,7016,161486,9679567,227
1654002933,7016,161486,9679703,158
1654002933,7016,161486,9679781,73
1654002933,7016,161486,9679821,-4
1654002933,7016,161486,9679845,-39
1654002933,7016,161487,5072454,-68
1654002933,7016,161487,5072701,-119
1654002933,7016,161487,5072856,-144
1654002933,7016,161487,5073007,-132
1654002933,7016,161487,5073156,-132
1654002933,7016,161487,5073295,-132
1654002933,7016,161487,5073429,-132
1654002934,31512,161487,5073526,-144
1654002934,31512,161487,5073606,-144
1654002934,31512,161487,5073685,-114
1654002934,31512,161487,5073768,-100
1654002934,31512,161487,5073849,-97
1654002934,31512,161487,5073929,-88
1654002934,31512,161487,5074006,-80
1654002934,31512,161487,5074105,-80
1654002934,31512,161487,5074176,-66
1654002934,31512,161487,5074281,-51
1654002934,31512,161487,5074396,-66
1654002934,31512,161487,5074537,-70
1654002934,31512,161487,5074683,-48
1654002934,31512,161487,5074821,-39
1654002934,31512,161487,5074969,-41
1654002934,31512,161487,5075112,-41
1654002934,31512,161487,5075251,-44
1654002934,31512,161487,5075391,-44
1654002934,31512,161487,5075528,-31
1654002934,31512,161487,5075668,-34
1654002934,31512,161487,5075808,-39
1654002934,31512,161487,5075947,-19
1654002934,31512,161487,5076037,-14
1654002934,31512,161487,5076064,-36
1654002934,31512,161487,5076144,-31
1654002934,31512,161487,5076248,-2
1654002934,31512,161487,5076382,-2
1654002934,31512,161487,5076522,-7
1654002934,31512,161487,507668,12
1654002934,31512,161487,5077024,19
1654002934,31512,161487,5077118,0
1654002934,31512,161487,5077217,-12
1654002934,31512,161487,5077552,-7
1654002934,31512,161487,507802,-2
1654002934,31512,161487,5078133,-9
1654002934,31512,161487,5078193,-14
1654002934,31512,161487,5078232,-12
1654002934,31512,161487,5078301,-14
1654002934,31512,161487,5078341,4
1654002934,31512,161487,5078401,139
1654002934,31512,161487,507844,449
1654002934,31512,161487,5078496,836
1654002934,31512,161487,5078575,914
1654002934,31512,161487,5078651,303
1654002934,31512,161487,5078749,-506
1654002934,31512,161487,5078823,-601
1654002934,31512,161487,5078913,-249
1654002934,31512,161487,5079012,-110
1654002934,31512,161487,5079097,-51
1654002934,31512,161487,507917,29
1654002934,33008,161487,5079268,22
1654002934,33008,161487,5079365,2
1654002934,33008,161487,5079462,22
1654002934,33008,161487,5079543,26
1654002934,33008,161487,507962,14
1654002934,33008,161487,507972,19
1654002934,33008,161487,507981,26
1654002934,33008,161487,5079874,29
1654002934,33008,161487,5079964,31
1654002934,33008,161487,5080049,44
1654002934,33008,161487,5080114,68
1654002934,33008,161487,5080199,85
1654002934,33008,161487,5080269,97
1654002934,33008,161487,5080339,122
1654002934,33008,161487,5080378,154
1654002934,33008,161487,5080416,183
1654002934,33008,161488,1373625,215
1654002934,33008,161488,137388,237
1654002934,33008,161488,137419,246
1654002934,33008,161488,1374461,246
1654002934,33008,161488,1374608,227
1654002934,33008,161488,1374749,198
1654002934,33008,161488,137489,163
1654002934,33008,161488,1375031,110
1654002934,85062,161488,137516,41
1654002934,85062,161488,1375241,-22
1654002934,85062,161488,1375309,-73
1654002934,85062,161488,1375413,-110
1654002934,85062,161488,1375497,-132
1654002934,85062,161488,137557,-154
1654002934,85062,161488,1375641,-166
1654002934,85062,161488,1375714,-166
1654002934,85062,161488,1375789,-163
1654002934,85062,161488,1375867,-161
1654002934,85062,161488,1375944,-151
1654002934,85062,161488,1376023,-139
1654002934,85062,161488,1376101,-144
1654002934,85062,161488,1376145,-144
1654002934,85062,161488,1376242,-129
1654002934,85062,161488,1376351,-124
1654002934,85062,161488,1376487,-124
1654002934,85062,161488,1376579,-117
1654002934,85062,161488,1376627,-112
1654002934,85062,161488,1376668,-112
1654002934,85062,161488,137669,-110
1654002934,85062,161488,1376711,-110
1654002934,85062,161488,1376734,-112
1654002934,85062,161488,1376756,-105
1654002934,85062,161488,1376777,-97
1654002934,85062,161488,1376798,-100
1654002934,85062,161488,1376819,-95
1654002934,85062,161488,1376841,-85
1654002934,85062,161488,1376862,-90
1654002934,85062,161488,1376884,-90
1654002934,85062,161488,1376906,-80
1654002934,85062,161488,1376934,-78
1654002934,85062,161488,1377027,-75
1654002934,85062,161488,1377122,-70
1654002934,85062,161488,1377254,-66
1654002934,85062,161488,1377396,-56
1654002934,85062,161488,1377537,-51
1654002934,85062,161488,1377674,-34
1654002934,85062,161488,1377815,-19
1654002934,85062,161488,1377953,-29
1654002934,85062,161488,1378093,-46
1654002934,85062,161488,1378228,-44
1654002934,85062,161488,1378367,-51
1654002934,85062,161488,1378505,-66
1654002934,85062,161488,1378644,-58
1654002934,85062,161488,1378734,-53
1654002934,85062,161488,1378769,-66
1654002934,85062,161488,1378807,-70
1654002934,85062,161488,1378828,-17
1654002934,85062,161488,137885,180
1654002934,85661,161488,1378872,564
1654002934,85661,161488,1378893,902
1654002934,85661,161488,1378916,694
1654002934,85661,161488,1378937,-134
1654002934,85661,161488,1378959,-701
1654002934,85661,161488,137898,-486
1654002934,85661,161488,1379003,-183
1654002934,85661,161488,1379131,-136
1654002934,85661,161488,1379225,-63
1654002934,85661,161488,1379358,-7
1654002934,85661,161488,1379496,-34
1654002934,85661,161488,1379636,-29
1654002934,85661,161488,1379773,-2
1654002934,85661,161488,1379911,2
1654002934,85661,161488,1380051,9
1654002934,85661,161488,6779381,24
1654002934,85661,161488,6779831,31
1654002934,85661,161488,6779935,39
1654002934,85661,161488,6780027,46
1654002934,85661,161488,6780116,63
1654002934,85661,161488,678019,97
1654002934,85661,161488,6780279,114
1654002934,85661,161488,6780404,110
1654002934,85661,161488,6780543,136
1654002935,40284,161488,6780648,195
1654002935,40284,161488,678076,227
1654002935,40284,161488,6780857,237
1654002935,40284,161488,678097,251
1654002935,40284,161488,6781075,251
1654002935,40284,161488,6781209,246
1654002935,40284,161488,6781317,246
1654002935,40284,161488,6781426,210
1654002935,40284,161488,6781515,154
1654002935,40284,161488,6781626,124
1654002935,40284,161488,6781708,66
1654002935,40284,161488,6781783,-29
1654002935,40284,161488,6781861,-73
1654002935,40284,161488,6781936,-63
1654002935,40284,161488,6782033,-85
1654002935,40284,161488,6782209,-132
1654002935,40284,161488,6782344,-144
1654002935,40284,161488,6782469,-141
1654002935,40284,161488,6782609,-146
1654002935,40284,161488,6782723,-119
1654002935,40284,161488,6782796,-48
1654002935,40284,161488,6782934,-9
1654002935,40284,161488,6783051,-26
1654002935,40284,161488,6783156,-53
1654002935,40284,161488,6783261,-63
1654002935,40284,161488,6783337,-46
1654002935,40284,161488,6783463,-29
1654002935,40284,161488,6783627,-56
1654002935,40284,161488,6783809,-80
1654002935,40284,161488,6783971,-70
1654002935,40284,161488,6784043,-58
1654002935,40284,161488,6784067,-56
1654002935,40284,161488,6784094,-41
1654002935,40284,161488,6784128,-34
1654002935,40284,161488,6784254,-31
1654002935,40284,161488,6784392,-34
1654002935,40284,161488,6784526,-58
1654002935,40284,161488,6784575,-66
1654002935,40284,161488,6784598,-56
1654002935,40284,161488,6784628,-66
1654002935,40284,161488,6784653,-63
1654002935,40284,161488,6784683,-56
1654002935,40284,161488,6784724,-75
1654002935,40284,161488,678475,-56
1654002935,40284,161488,6784774,-17
1654002935,40284,161488,6784802,-29
1654002935,40284,161488,6784827,-31
1654002935,40284,161488,6784855,-2
1654002935,40284,161488,6784927,2
1654002935,40284,161488,6785057,2
1654002935,40881,161488,6785169,34
1654002935,40881,161488,6785261,34
1654002935,40881,161488,6785396,-4
1654002935,40881,161488,6785465,12
1654002935,40881,161488,6785495,51
1654002935,40881,161488,6785535,26
1654002935,40881,161488,6785559,7
1654002935,40881,161488,6785597,36
1654002935,40881,161488,6785625,29
1654002935,40881,161488,678567,2
1654002935,40881,161488,6785692,80
1654002935,40881,161488,6785719,283
1654002935,40881,161488,6785744,623
1654002935,40881,161488,678579,963
1654002935,40881,161489,2174704,826
1654002935,40881,161489,2174868,22
1654002935,40881,161489,2174898,-601
1654002935,40881,161489,2174922,-415
1654002935,40881,161489,2174946,-90
1654002935,40881,161489,2174968,-46
1654002935,40881,161489,217499,9
1654002935,40881,161489,2175012,80
1654002935,40881,161489,2175034,83
1654002935,40881,161489,2175055,97
1654002935,98112,161489,217509,75
1654002935,98112,161489,2175112,41
1654002935,98112,161489,2175133,85
1654002935,98112,161489,2175153,119
1654002935,98112,161489,2175175,92
1654002935,98112,161489,2175196,110
1654002935,98112,161489,2175219,163
1654002935,98112,161489,2175241,171
1654002935,98112,161489,2175264,163
1654002935,98112,161489,2175285,190
1654002935,98112,161489,2175306,224
1654002935,98112,161489,2175327,239
1654002935,98112,161489,2175357,249
1654002935,98112,161489,2175381,286
1654002935,98112,161489,2175403,330
1654002935,98112,161489,2175425,342
1654002935,98112,161489,2175448,352
1654002935,98112,161489,2175469,359
1654002935,98112,161489,2175491,342
1654002935,98112,161489,2175512,330
1654002935,98112,161489,2175535,300
1654002935,98112,161489,2175556,212
1654002935,98112,161489,2175578,132
1654002935,98112,161489,2175599,100
1654002935,98112,161489,2175622,68
1654002935,98112,161489,2175644,17
1654002935,98112,161489,2175665,-22
1654002935,98112,161489,2175686,-7
1654002935,98112,161489,2175708,9
1654002935,98112,161489,2175729,-36
1654002935,98112,161489,2175751,-46
1654002935,98112,161489,2175773,17
1654002935,98112,161489,2175802,22
1654002935,98112,161489,217588,-17
1654002935,98112,161489,217598,0
1654002935,98112,161489,2176087,22
1654002935,98112,161489,2176128,-4
1654002935,98112,161489,2176171,-9
1654002935,98112,161489,2176191,31
1654002935,98112,161489,2176219,26
1654002935,98112,161489,2176243,-9
1654002935,98112,161489,2176265,22
1654002935,98112,161489,2176286,58
1654002935,98112,161489,2176308,31
1654002935,98112,161489,217633,0
1654002935,98112,161489,2176352,14
1654002935,98112,161489,2176373,34
1654002935,98112,161489,2176394,9
1654002935,98112,161489,2176416,-2
1654002935,98112,161489,2176437,24
1654002935,99608,161489,2176461,39
1654002935,99608,161489,2176482,39
1654002935,99608,161489,2176504,73
1654002935,99608,161489,2176525,92
1654002935,99608,161489,2176547,41
1654002935,99608,161489,2176569,2
1654002935,99608,161489,2176591,26
1654002935,99608,161489,2176614,53
1654002935,99608,161489,2176635,53
1654002935,99608,161489,2176656,63
1654002935,99608,161489,2176678,80
1654002935,99608,161489,2176699,83
1654002935,99608,161489,217672,83
1654002935,99608,161489,8023444,70
1654002935,99608,161489,8023698,63
1654002935,99608,161489,8023792,78
1654002935,99608,161489,8023841,75
1654002935,99608,161489,8023903,56
1654002935,99608,161489,8023944,68
1654002935,99608,161489,8023986,70
1654002935,99608,161489,8024046,48
1654002935,99608,161489,8024085,48
1654002935,99608,161489,8024137,68
1654002935,99608,161489,8024191,102
1654002936,57716,161489,8024246,234
1654002936,57716,161489,8024279,545
1654002936,57716,161489,8024311,902
1654002936,57716,161489,8024345,848
1654002936,57716,161489,8024379,127
1654002936,57716,161489,8024416,-557
1654002936,57716,161489,8024452,-464
1654002936,57716,161489,8024492,-107
1654002936,57716,161489,8024526,-29
1654002936,57716,161489,8024561,-2
1654002936,57716,161489,8024591,39
1654002936,57716,161489,8024625,29
1654002936,57716,161489,8024657,31
1654002936,57716,161489,8024689,34
1654002936,57716,161489,8024719,24
1654002936,57716,161489,8024753,39
1654002936,57716,161489,8024806,63
1654002936,57716,161489,8024876,63
1654002936,57716,161489,802494,53
1654002936,57716,161489,8024975,73
1654002936,57716,161489,8025012,97
1654002936,57716,161489,8025066,88
1654002936,57716,161489,80251,102
1654002936,57716,161489,8025136,166
1654002936,57716,161489,8025187,190
1654002936,57716,161489,8025226,156
1654002936,57716,161489,8025595,168
1654002936,57716,161489,802598,239
1654002936,57716,161489,8026083,283
1654002936,57716,161489,8026148,276
1654002936,57716,161489,8026204,264
1654002936,57716,161489,8026248,283
1654002936,57716,161489,8026289,293
1654002936,57716,161489,8026331,237
1654002936,57716,161489,802637,154
1654002936,57716,161489,8026414,105
1654002936,57716,161489,8026467,58
1654002936,57716,161489,8026527,-2
1654002936,57716,161489,8026568,-36
1654002936,57716,161489,802661,-58
1654002936,57716,161489,8026651,-85
1654002936,57716,161489,8026695,-66
1654002936,57716,161489,8026751,-34
1654002936,57716,161489,8026792,-80
1654002936,57716,161489,802685,-110
1654002936,57716,161489,8026888,-26
1654002936,57716,161489,8026928,31
1654002936,57716,161489,8026982,-22
1654002936,57716,161489,802702,-63
1654002936,57716,161489,8027077,-34
1654002936,5897,161489,8027117,-19
1654002936,5897,161489,8027157,-48
1654002936,5897,161489,802721,-53
1654002936,5897,161489,8027248,0
1654002936,5897,161489,8027302,24
1654002936,5897,161489,8027346,-29
1654002936,5897,161489,80274,-75
1654002936,5897,161489,8027438,-58
1654002936,5897,161489,8027493,-22
1654002936,5897,161489,8027531,-19
1654002936,5897,161489,8027586,-26
1654002936,5897,161489,8027624,-4
1654002936,5897,161490,3874099,-12
1654002936,5897,161490,387453,-61
1654002936,5897,161490,3874996,-90
1654002936,5897,161490,3875129,-92
1654002936,5897,161490,3875191,-83
1654002936,5897,161490,3875251,-48
1654002936,5897,161490,3875308,-26
1654002936,5897,161490,3875342,-78
1654002936,5897,161490,387539,-73
1654002936,5897,161490,3875442,56
1654002936,5897,161490,3875532,100
1654002936,5897,161490,3875627,0
1654002937,05471,161490,3875881,-36
1654002937,05471,161490,3876218,29
1654002937,05471,161490,3876321,17
1654002937,05471,161490,3876412,-58
1654002937,05471,161490,3876493,-41
1654002937,05471,161490,3876643,17
1654002937,05471,161490,387675,46
1654002937,05471,161490,3876875,70
1654002937,05471,161490,3877004,56
1654002937,05471,161490,3877157,12
1654002937,05471,161490,3877248,0
1654002937,05471,161490,3877278,17
1654002937,05471,161490,3877314,36
1654002937,05471,161490,3877336,19
1654002937,05471,161490,3877359,-4
1654002937,05471,161490,3877395,53
1654002937,05471,161490,3877467,217
1654002937,05471,161490,3877519,508
1654002937,05471,161490,3877559,807
1654002937,05471,161490,3877581,655
1654002937,05471,161490,3877601,-24
1654002937,05471,161490,3877623,-481
1654002937,05471,161490,3877645,-335
1654002937,05471,161490,3877666,-114
1654002937,05471,161490,3877688,-63
1654002937,05471,161490,3877708,0
1654002937,05471,161490,3877735,24
1654002937,05471,161490,3877864,19
1654002937,05471,161490,3878011,75
1654002937,05471,161490,3878128,70
1654002937,05471,161490,3878284,24
1654002937,05471,161490,3878437,63
1654002937,05471,161490,3878552,100
1654002937,05471,161490,3878673,90
1654002937,05471,161490,387873,90
1654002937,05471,161490,3878752,119
1654002937,05471,161490,3878772,161
1654002937,05471,161490,387881,149
1654002937,05471,161490,3878877,119
1654002937,05471,161490,3879005,124
1654002937,05471,161490,3879071,127
1654002937,05471,161490,3879094,146
1654002937,05471,161490,3879122,220
1654002937,05471,161490,3879145,261
1654002937,05471,161490,3879166,244
1654002937,05471,161490,3879187,232
1654002937,05471,161490,3879209,237
1654002937,05471,161490,3879247,244
1654002937,05471,161490,3879389,229
1654002937,05471,161490,3879454,178
1654002937,0607,161490,3879478,102
1654002937,0607,161490,3879499,31
1654002937,0607,161490,3879522,4
1654002937,0607,161490,3879544,-12
1654002937,0607,161490,3879571,-70
1654002937,0607,161490,3879707,-136
1654002937,0607,161490,3879801,-166
1654002937,0607,161490,3879837,-161
1654002937,0607,161490,3879974,-132
1654002937,0607,161490,3880036,-119
1654002937,0607,161490,3880071,-122
1654002937,0607,161490,8829262,-122
1654002937,0607,161490,8829509,-149
1654002937,0607,161490,8829669,-176
1654002937,0607,161490,8829767,-168
1654002937,0607,161490,8829805,-117
1654002937,0607,161490,8829828,-83
1654002937,0607,161490,882985,-112
1654002937,0607,161490,8829873,-146
1654002937,0607,161490,8829895,-151
1654002937,0607,161490,8829918,-149
1654002937,0607,161490,882994,-144
1654002937,0607,161490,8829962,-122
1654002937,0607,161490,8829984,-122
1654002937,64025,161490,8830006,-158
1654002937,64025,161490,8830027,-183
1654002937,64025,161490,8830048,-166
1654002937,64025,161490,883007,-146
1654002937,64025,161490,8830091,-151
1654002937,64025,161490,8830112,-163
1654002937,64025,161490,8830133,-178
1654002937,64025,161490,8830153,-185
1654002937,64025,161490,8830174,-173
1654002937,64025,161490,8830193,-161
1654002937,64025,161490,8830213,-151
1654002937,64025,161490,8830233,-139
1654002937,64025,161490,8830262,-146
1654002937,64025,161490,8830295,-154
1654002937,64025,161490,8830398,-139
1654002937,64025,161490,88305,-134
1654002937,64025,161490,8830567,-112
1654002937,64025,161490,8830591,-80
1654002937,64025,161490,8830627,-88
1654002937,64025,161490,8830648,-105
1654002937,64025,161490,883067,-102
1654002937,64025,161490,8830692,-100
1654002937,64025,161490,8830714,-100
1654002937,64025,161490,8830736,-102
1654002937,64025,161490,8830757,-107
1654002937,64025,161490,883078,-85
1654002937,64025,161490,8830802,-12
1654002937,64025,161490,8830823,102
1654002937,64025,161490,8830845,315
1654002937,64025,161490,8830867,611
1654002937,64025,161490,8830887,594
1654002937,64025,161490,8830911,-2
1654002937,64025,161490,883101,-567
1654002937,64025,161490,8831142,-538
1654002937,64025,161490,8831206,-327
1654002937,64025,161490,883123,-276
1654002937,64025,161490,8831264,-158
1654002937,64025,161490,8831286,0

1654002937,64025,161490,8831308,-7
1654002937,64025,161490,883133,-44
1654002937,64025,161490,8831352,-2
1654002937,64025,161490,8831373,-17
1654002937,64025,161490,8831395,-70
1654002937,64025,161490,8831417,-22
1654002937,64025,161490,8831439,51
1654002937,64025,161490,8831461,36
1654002937,64025,161490,8831483,2
1654002937,64025,161490,8831506,22
1654002937,64025,161490,8831528,66
1654002937,64025,161490,8831549,100
1654002937,64827,161490,883157,102
1654002937,64827,161490,8831591,95
1654002937,64827,161490,8831612,122
1654002937,64827,161490,8831635,168
1654002937,64827,161490,8831657,198
1654002937,64827,161490,8831678,215
1654002937,64827,161490,8831699,227
1654002937,64827,161490,8831721,224
1654002937,64827,161490,8831742,229
1654002937,64827,161490,8831764,217
1654002937,64827,161491,4676573,171
1654002937,64827,161491,4676841,132
1654002937,64827,161491,4676979,90
1654002937,64827,161491,4677083,17
1654002937,64827,161491,4677202,-46
1654002937,64827,161491,4677338,-85
1654002937,64827,161491,4677443,-102
1654002937,64827,161491,4677551,-90
1654002937,64827,161491,467766,-92
1654002937,64827,161491,4677789,-119
1654002937,64827,161491,4677923,-114
1654002937,64827,161491,4678072,-102
1654002937,64827,161491,4678136,-124
1654002937,64827,161491,4678161,-136
1654002938,22653,161491,4678187,-129
1654002938,22653,161491,4678209,-129
1654002938,22653,161491,4678238,-114
1654002938,22653,161491,4678326,-88
1654002938,22653,161491,467845,-75
1654002938,22653,161491,4678554,-66
1654002938,22653,161491,4678647,-58
1654002938,22653,161491,4678732,-78
1654002938,22653,161491,4678842,-110
1654002938,22653,161491,4678905,-110
1654002938,22653,161491,4678948,-85
1654002938,22653,161491,4678971,-63
1654002938,22653,161491,4679015,-66
1654002938,22653,161491,4679039,-90
1654002938,22653,161491,4679063,-85
1654002938,22653,161491,4679102,-44
1654002938,22653,161491,4679123,-31
1654002938,22653,161491,4679143,-56
1654002938,22653,161491,4679179,-73
1654002938,22653,161491,4679277,-73
1654002938,22653,161491,4679403,-63
1654002938,22653,161491,4679463,-56
1654002938,22653,161491,4679486,-44
1654002938,22653,161491,4679525,-14
1654002938,22653,161491,4679547,7
1654002938,22653,161491,467957,-24
1654002938,22653,161491,4679634,-66
1654002938,22653,161491,4679752,-61
1654002938,22653,161491,467987,-39
1654002938,22653,161491,4679972,-9
1654002938,22653,161491,4680076,2
1654002938,22653,161491,4680159,-9
1654002938,22653,161491,4680281,-19
1654002938,22653,161491,4680397,-24
1654002938,22653,161491,4680493,-24
1654002938,22653,161491,4680591,46
1654002938,22653,161491,4680657,251
1654002938,22653,161491,4680761,545
1654002938,22653,161491,4680845,733
1654002938,22653,161491,4680929,479
1654002938,22653,161491,4680963,-168
1654002938,22653,161491,4680986,-503
1654002938,22653,161491,4681008,-339
1654002938,22653,161491,4681031,-193
1654002938,22653,161491,4681052,-110
1654002938,22653,161491,4681075,51
1654002938,22653,161491,4681097,95
1654002938,22653,161491,4681132,44
1654002938,22653,161491,4681258,63
1654002938,22653,161491,4681367,88
1654002938,2341,161491,4681478,68
1654002938,2341,161491,4681605,75
1654002938,2341,161491,4681705,105
1654002938,2341,161491,4681789,110
1654002938,2341,161491,4681921,102
1654002938,2341,161491,468203,105
1654002938,2341,161491,468214,134
1654002938,2341,161491,4682247,171
1654002938,2341,161491,4682357,188
1654002938,2341,161492,0525262,195
1654002938,2341,161492,0525564,220
1654002938,2341,161492,0525654,251
1654002938,2341,161492,0525764,281
1654002938,2341,161492,052584,305
1654002938,2341,161492,0525923,310
1654002938,2341,161492,052606,310
1654002938,2341,161492,052614,320
1654002938,2341,161492,0526166,310
1654002938,2341,161492,0526189,259
1654002938,2341,161492,0526211,207
1654002938,2341,161492,0526232,166
1654002938,2341,161492,0526261,122
1654002938,2341,161492,0526381,83
1654002938,2341,161492,0526479,39
1654002938,76953,161492,0526611,-17
1654002938,76953,161492,0526726,-36
1654002938,76953,161492,0526837,-19
1654002938,76953,161492,0526928,-24
1654002938,76953,161492,0527036,-31
1654002938,76953,161492,0527245,-4
1654002938,76953,161492,0527378,4
1654002938,76953,161492,0527463,-14
1654002938,76953,161492,0527506,-19
1654002938,76953,161492,0527596,-7
1654002938,76953,161492,0527657,-2
1654002938,76953,161492,0527756,-19
1654002938,76953,161492,0527822,-29
1654002938,76953,161492,0527872,7
1654002938,76953,161492,0528008,41
1654002938,76953,161492,0528118,9
1654002938,76953,161492,0528251,-34
1654002938,76953,161492,0528365,0
1654002938,76953,161492,0528469,31
1654002938,76953,161492,0528572,-4
1654002938,76953,161492,0528674,-19
1654002938,76953,161492,052875,4
1654002938,76953,161492,0528797,24
1654002938,76953,161492,0528835,46
1654002938,76953,161492,0528937,61
1654002938,76953,161492,0529088,46
1654002938,76953,161492,0529207,19
1654002938,76953,161492,0529309,24
1654002938,76953,161492,0529439,31
1654002938,76953,161492,0529529,12
1654002938,76953,161492,052966,26
1654002938,76953,161492,0529795,83
1654002938,76953,161492,0529896,88
1654002938,76953,161492,0530011,46
1654002938,76953,161492,0530327,51
1654002938,76953,161492,0530463,66
1654002938,76953,161492,0530564,36
1654002938,76953,161492,0530643,24
1654002938,76953,161492,0530763,56
1654002938,76953,161492,0530874,73
1654002938,76953,161492,0530967,41
1654002938,76953,161492,0531052,46
1654002938,76953,161492,0531131,124
1654002938,76953,161492,0531252,261
1654002938,76953,161492,0531388,533
1654002938,76953,161492,0531476,789
1654002938,76953,161492,0531503,564
1654002938,76953,161492,0531525,-110
1654002938,76953,161492,0531548,-459
1654002938,76953,161492,053157,-259
1654002938,7805,161492,0531608,-61
1654002938,7805,161492,0531833,-14
1654002938,7805,161492,0531889,56
1654002938,7805,161492,0531913,80
1654002938,7805,161492,0531948,75
1654002938,7805,161492,0531969,114
1654002938,7805,161492,0531991,129
1654002938,7805,161492,0532013,100
1654002938,7805,161492,5924576,92
1654002938,7805,161492,5924822,119
1654002938,7805,161492,5924871,112
1654002938,7805,161492,5924912,70
1654002938,7805,161492,5924953,92
1654002938,7805,161492,5924995,161
1654002938,7805,161492,5925035,188
1654002938,7805,161492,5925078,190
1654002938,7805,161492,5925119,193
1654002938,7805,161492,5925158,212
1654002938,7805,161492,5925207,256
1654002938,7805,161492,5925248,269
1654002938,7805,161492,5925296,239
1654002938,7805,161492,5925334,244
1654002938,7805,161492,5925375,286
1654002938,7805,161492,5925417,283
1654002939,31138,161492,5925456,288
1654002939,31138,161492,5925523,310
1654002939,31138,161492,5925565,239
1654002939,31138,161492,5925602,154
1654002939,31138,161492,592564,122
1654002939,31138,161492,5925685,66
1654002939,31138,161492,5925723,12
1654002939,31138,161492,5925759,7
1654002939,31138,161492,5925795,12
1654002939,31138,161492,5925831,-4
1654002939,31138,161492,5929906,-39
1654002939,31138,161492,5929994,-41
1654002939,31138,161492,5930054,-2
1654002939,31138,161492,593011,29
1654002939,31138,161492,5930149,14
1654002939,31138,161492,5930222,-14
1654002939,31138,161492,5930292,-22
1654002939,31138,161492,5930361,0
1654002939,31138,161492,5930436,29
1654002939,31138,161492,593051,36
1654002939,31138,161492,5930583,17
1654002939,31138,161492,5930632,0
1654002939,31138,161492,5930683,4
1654002939,31138,161492,5930744,14
1654002939,31138,161492,593079,-7
1654002939,31138,161492,5930835,-22
1654002939,31138,161492,5930894,22
1654002939,31138,161492,5930963,44
1654002939,31138,161492,5931015,9
1654002939,31138,161492,5931072,9
1654002939,31138,161492,5931142,22
1654002939,31138,161492,5931248,4
1654002939,31138,161492,5931323,12
1654002939,31138,161492,593147,31
1654002939,31138,161492,5931565,12
1654002939,31138,161492,5931665,2
1654002939,31138,161492,5931739,39
1654002939,31138,161492,5931834,61
1654002939,31138,161492,5931929,44
1654002939,31138,161492,5932054,34
1654002939,31138,161492,5932165,48
1654002939,31138,161492,5932262,44
1654002939,31138,161492,5932318,29
1654002939,31138,161492,593237,36
1654002939,31138,161492,5932411,41
1654002939,31138,161492,5932561,41
1654002939,31138,161492,59327,51
1654002939,31138,161492,5932829,66
1654002939,31138,161492,5932915,132
1654002939,31138,161492,5933006,369
1654002939,32833,161492,5933071,721
1654002939,32833,161492,5933214,819
1654002939,32833,161492,59333,330
1654002939,32833,161492,5933407,-354
1654002939,32833,161492,5933736,-491
1654002939,32833,161492,5933884,-229
1654002939,32833,161492,5934035,-90
1654002939,32833,161493,1329442,0
1654002939,32833,161493,1329669,117
1654002939,32833,161493,1329878,122
1654002939,32833,161493,1329914,80
1654002939,32833,161493,1329955,92
1654002939,32833,161493,1329979,107
1654002939,32833,161493,133001,107
1654002939,32833,161493,1330034,134
1654002939,32833,161493,1330056,139
1654002939,32833,161493,133008,110
1654002939,32833,161493,1330107,119
1654002939,32833,161493,133013,161
1654002939,32833,161493,1330154,178
1654002939,32833,161493,1330185,188
1654002939,32833,161493,1330297,200
1654002939,32833,161493,1330455,205
1654002939,32833,161493,1330595,234
1654002939,89391,161493,1330732,276
1654002939,89391,161493,133081,298
1654002939,89391,161493,1330876,330
1654002939,89391,161493,1330945,366
1654002939,89391,161493,1331019,383
1654002939,89391,161493,1331093,376
1654002939,89391,161493,1331165,359
1654002939,89391,161493,1331238,339
1654002939,89391,161493,133131,295
1654002939,89391,161493,1331386,220
1654002939,89391,161493,1331464,151
1654002939,89391,161493,1331545,100
1654002939,89391,161493,1331626,39
1654002939,89391,161493,1331705,7
1654002939,89391,161493,1331783,39
1654002939,89391,161493,1331847,68
1654002939,89391,161493,1331886,17
1654002939,89391,161493,1331965,-36
1654002939,89391,161493,1332022,7
1654002939,89391,161493,1332076,63
1654002939,89391,161493,1332218,39
1654002939,89391,161493,1332309,12
1654002939,89391,161493,1332424,22
1654002939,89391,161493,1332575,14
1654002939,89391,161493,1332716,19
1654002939,89391,161493,1332837,53
1654002939,89391,161493,1332974,56
1654002939,89391,161493,133312,29
1654002939,89391,161493,1333253,19
1654002939,89391,161493,1333385,26
1654002939,89391,161493,133351,58
1654002939,89391,161493,1333621,83
1654002939,89391,161493,1333659,46
1654002939,89391,161493,1333755,0
1654002939,89391,161493,1333862,12
1654002939,89391,161493,1333995,53
1654002939,89391,161493,1334057,53
1654002939,89391,161493,133411,22
1654002939,89391,161493,1334242,17
1654002939,89391,161493,1334379,19
1654002939,89391,161493,1334455,12
1654002939,89391,161493,1334516,36
1654002939,89391,161493,1334567,41
1654002939,89391,161493,1334646,4
1654002939,89391,161493,1334707,-9
1654002939,89391,161493,1334745,7
1654002939,89391,161493,1334795,26
1654002939,89391,161493,1334858,24
1654002939,89391,161493,1334896,12
1654002939,89391,161493,1334984,29
1654002939,91187,161493,1335038,78
1654002939,91187,161493,1335096,176
1654002939,91187,161493,1335179,405
1654002939,91187,161493,1335223,733
1654002939,91187,161493,1335376,855
1654002939,91187,161493,1335521,383
1654002939,91187,161493,7176038,-354
1654002939,91187,161493,7176232,-542
1654002939,91187,161493,7176269,-269
1654002939,91187,161493,7176312,-124
1654002939,91187,161493,7176338,-56
1654002939,91187,161493,7176364,61
1654002939,91187,161493,7176389,78
1654002939,91187,161493,7176414,44
1654002939,91187,161493,7176439,70
1654002939,91187,161493,7176464,85
1654002939,91187,161493,7176488,78
1654002939,91187,161493,7176605,102
1654002939,91187,161493,7176687,127
1654002939,91187,161493,7176737,129
1654002939,91187,161493,7176826,144
1654002939,91187,161493,7176922,161
1654002939,91187,161493,7177027,158
1654002939,91187,161493,7177131,168
1654002940,43868,161493,7177228,212
1654002940,43868,161493,7177254,244
1654002940,43868,161493,7177275,254
1654002940,43868,161493,71773,286
1654002940,43868,161493,7177364,339
1654002940,43868,161493,7177469,359
1654002940,43868,161493,7177549,354
1654002940,43868,161493,7177647,379
1654002940,43868,161493,717775,403
1654002940,43868,161493,7177813,386
1654002940,43868,161493,7177861,327
1654002940,43868,161493,7177908,256
1654002940,43868,161493,7177957,195
1654002940,43868,161493,717801,146
1654002940,43868,161493,7178037,97
1654002940,43868,161493,7178059,56
1654002940,43868,161493,7178082,36
1654002940,43868,161493,7178106,12
1654002940,43868,161493,7178176,-9
1654002940,43868,161493,7178314,0
1654002940,43868,161493,7178397,9
1654002940,43868,161493,7178422,-12
1654002940,43868,161493,7178453,-17
1654002940,43868,161493,7178476,26
1654002940,43868,161493,7178497,44
1654002940,43868,161493,7178518,26
1654002940,43868,161493,717854,36
1654002940,43868,161493,7178562,51
1654002940,43868,161493,7178583,48
1654002940,43868,161493,7178605,53
1654002940,43868,161493,7178626,46
1654002940,43868,161493,7178647,26
1654002940,43868,161493,7178669,31
1654002940,43868,161493,7178691,46
1654002940,43868,161493,7178717,36
1654002940,43868,161493,7178738,29
1654002940,43868,161493,717876,39
1654002940,43868,161493,7178782,39
1654002940,43868,161493,7178803,24
1654002940,43868,161493,7178824,14
1654002940,43868,161493,7178846,26
1654002940,43868,161493,7178867,51
1654002940,43868,161493,717889,68
1654002940,43868,161493,7178911,66
1654002940,43868,161493,7178944,44
1654002940,43868,161493,7179065,19
1654002940,43868,161493,7179238,14
1654002940,43868,161493,717936,17
1654002940,43868,161493,7179508,17
1654002940,43868,161493,7179623,26
1654002940,44566,161493,7179671,29
1654002940,44566,161493,7179801,4
1654002940,44566,161493,7179921,14
1654002940,44566,161493,7179958,112
1654002940,44566,161493,7179989,281
1654002940,44566,161494,2577607,564
1654002940,44566,161494,2577864,848
1654002940,44566,161494,2578011,648
1654002940,44566,161494,2578115,-105
1654002940,44566,161494,2578178,-572
1654002940,44566,161494,2578239,-371
1654002940,44566,161494,25783,-141
1654002940,44566,161494,2578376,-95
1654002940,44566,161494,2578463,12
1654002940,44566,161494,2578526,44
1654002940,44566,161494,2578614,-14
1654002940,44566,161494,2578701,19
1654002940,44566,161494,2578789,75
1654002940,44566,161494,2578858,88
1654002940,44566,161494,2578954,80
1654002940,44566,161494,2579104,66
1654002940,44566,161494,2579246,56
1654002940,44566,161494,2579391,56
1654002940,44566,161494,2579538,88
1654002941,01972,161494,2579672,122
1654002941,01972,161494,2579753,124
1654002941,01972,161494,2579822,141
1654002941,01972,161494,2579897,168
1654002941,01972,161494,2579959,166
1654002941,01972,161494,2580023,205
1654002941,01972,161494,2580101,286
1654002941,01972,161494,2580173,300
1654002941,01972,161494,2580216,283
1654002941,01972,161494,2580237,293
1654002941,01972,161494,2580271,310
1654002941,01972,161494,2580293,315
1654002941,01972,161494,2580314,295
1654002941,01972,161494,2580335,246
1654002941,01972,161494,2580356,171
1654002941,01972,161494,2580378,92
1654002941,01972,161494,2580407,53
1654002941,01972,161494,2580518,34
1654002941,01972,161494,2580646,-7
1654002941,01972,161494,2580766,-39
1654002941,01972,161494,2580904,-19
1654002941,01972,161494,2581043,-4
1654002941,01972,161494,2581182,-39
1654002941,01972,161494,2581316,-53
1654002941,01972,161494,2581451,-39
1654002941,01972,161494,2581603,-39
1654002941,01972,161494,2581745,-24
1654002941,01972,161494,2581842,4
1654002941,01972,161494,2581868,7
1654002941,01972,161494,2581903,4
1654002941,01972,161494,2581926,-2
1654002941,01972,161494,2581949,-17
1654002941,01972,161494,2581971,7
1654002941,01972,161494,2582036,36
1654002941,01972,161494,2582173,7
1654002941,01972,161494,2582315,-24
1654002941,01972,161494,2582464,-2
1654002941,01972,161494,2582554,34
1654002941,01972,161494,2582579,53
1654002941,01972,161494,2582671,44
1654002941,01972,161494,2582764,4
1654002941,01972,161494,25829,0
1654002941,01972,161494,2583044,51
1654002941,01972,161494,2583189,61
1654002941,01972,161494,2583336,17
1654002941,01972,161494,2583483,12
1654002941,01972,161494,258363,46
1654002941,01972,161494,2583782,53
1654002941,01972,161494,2583856,26
1654002941,01972,161494,2583918,12
1654002941,03827,161494,258394,26
1654002941,03827,161494,2583969,26
1654002941,03827,161494,2583991,12
1654002941,03827,161494,2584013,19
1654002941,03827,161494,8422089,31
1654002941,03827,161494,8422262,22
1654002941,03827,161494,8422295,70
1654002941,03827,161494,8422324,295
1654002941,03827,161494,8422359,662
1654002941,03827,161494,8422397,897
1654002941,03827,161494,8422421,589
1654002941,03827,161494,8422459,-185
1654002941,03827,161494,8422482,-606
1654002941,03827,161494,8422505,-388
1654002941,03827,161494,842253,-176
1654002941,03827,161494,8422555,-134
1654002941,03827,161494,84226,-36
1654002941,03827,161494,8422624,4
1654002941,03827,161494,8422647,-39
1654002941,03827,161494,8422669,-22
1654002941,03827,161494,8422692,12
1654002941,03827,161494,8422714,-2
1654002941,03827,161494,8422738,12
1654002941,03827,161494,8422763,56
1654002941,60172,161494,8422786,48
1654002941,60172,161494,8422809,24
1654002941,60172,161494,8422831,53
1654002941,60172,161494,8422854,90
1654002941,60172,161494,8422877,92
1654002941,60172,161494,8422899,90
1654002941,60172,161494,8422921,124
1654002941,60172,161494,8422943,176
1654002941,60172,161494,8422964,210
1654002941,60172,161494,8422998,242
1654002941,60172,161494,8423069,261
1654002941,60172,161494,8423138,264
1654002941,60172,161494,8423177,295
1654002941,60172,161494,8423226,344
1654002941,60172,161494,8423283,308
1654002941,60172,161494,8423354,217
1654002941,60172,161494,8423415,171
1654002941,60172,161494,842344,154
1654002941,60172,161494,8423474,95
1654002941,60172,161494,8423566,0
1654002941,60172,161494,8423651,-46
1654002941,60172,161494,8423775,-26
1654002941,60172,161494,8423909,-24
1654002941,60172,161494,8424013,-39
1654002941,60172,161494,8424094,-14
1654002941,60172,161494,8424191,0
1654002941,60172,161494,842427,-19
1654002941,60172,161494,8424368,-34
1654002941,60172,161494,842443,-31
1654002941,60172,161494,8424551,-17
1654002941,60172,161494,8424588,-4
1654002941,60172,161494,8424629,-24
1654002941,60172,161494,842465,-39
1654002941,60172,161494,8424671,-17
1654002941,60172,161494,8424694,51
1654002941,60172,161494,8424722,97
1654002941,60172,161494,8424744,56
1654002941,60172,161494,8424766,22
1654002941,60172,161494,8424787,34
1654002941,60172,161494,8424808,31
1654002941,60172,161494,8424829,22
1654002941,60172,161494,8424867,7
1654002941,60172,161494,8424958,2
1654002941,60172,161494,8425064,26
1654002941,60172,161494,8425173,53
1654002941,60172,161494,842527,58
1654002941,60172,161494,8425297,48
1654002941,60172,161494,8425319,44
1654002941,60172,161494,842534,44
1654002941,60172,161494,8425375,14
1654002941,62726,161494,84255,-4
1654002941,62726,161494,8425617,36
1654002941,62726,161494,8425654,78
1654002941,62726,161495,4290456,61
1654002941,62726,161495,4290803,39
1654002941,62726,161495,4290884,48
1654002941,62726,161495,4290936,39
1654002941,62726,161495,4290986,9
1654002941,62726,161495,4291032,22
1654002941,62726,161495,429108,141
1654002941,62726,161495,4291128,452
1654002941,62726,161495,4291175,836
1654002941,62726,161495,429122,868
1654002941,62726,161495,4291267,254
1654002941,62726,161495,4291312,-449
1654002941,62726,161495,4291357,-481
1654002941,62726,161495,4291423,-212
1654002941,62726,161495,4291534,-141
1654002941,62726,161495,4291656,-66
1654002941,62726,161495,4291784,26
1654002941,62726,161495,4291883,14
1654002941,62726,161495,4291971,0
1654002941,62726,161495,4292039,7
1654002941,62726,161495,4292094,4
1654002942,15487,161495,4292279,22
1654002942,15487,161495,4292494,36
1654002942,15487,161495,4292636,34
1654002942,15487,161495,4292705,44
1654002942,15487,161495,4292774,58
1654002942,15487,161495,4292839,48
1654002942,15487,161495,4292914,53
1654002942,15487,161495,4292986,95
1654002942,15487,161495,4293033,119
1654002942,15487,161495,4293214,129
1654002942,15487,161495,429367,163
1654002942,15487,161495,4293847,198
1654002942,15487,161495,4293951,212
1654002942,15487,161495,4294019,229
1654002942,15487,161495,4294095,266
1654002942,15487,161495,4294147,295
1654002942,15487,161495,4294213,291
1654002942,15487,161495,429427,249
1654002942,15487,161495,429434,190
1654002942,15487,161495,429446,132
1654002942,15487,161495,4294551,80
1654002942,15487,161495,4294624,34
1654002942,15487,161495,4294777,-7
1654002942,15487,161495,4294914,-31
1654002942,15487,161495,4295028,-41
1654002942,15487,161495,4295112,-56
1654002942,15487,161495,4295191,-75
1654002942,15487,161495,4295291,-78
1654002942,15487,161495,4295372,-46
1654002942,15487,161495,4295466,-26
1654002942,15487,161495,4295566,-39
1654002942,15487,161495,4295647,-46
1654002942,15487,161495,4295745,-26
1654002942,15487,161495,4295874,-9
1654002942,15487,161495,4296023,-4
1654002942,15487,161495,4296144,-14
1654002942,15487,161495,4296213,-22
1654002942,15487,161495,4296238,9
1654002942,15487,161495,429626,44
1654002942,15487,161495,4296284,34
1654002942,15487,161495,4296306,4
1654002942,15487,161495,4296336,4
1654002942,15487,161495,4296456,29
1654002942,15487,161495,4296576,48
1654002942,15487,161495,4296625,48
1654002942,15487,161495,4296649,31
1654002942,15487,161495,429667,26
1654002942,15487,161495,4296692,22
1654002942,15487,161495,4296714,7
1654002942,15487,161495,4296735,19
1654002942,16086,161495,4296756,61
1654002942,16086,161495,4296779,63
1654002942,16086,161495,9673324,36
1654002942,16086,161495,9673576,39
1654002942,16086,161495,9673693,46
1654002942,16086,161495,9673786,41
1654002942,16086,161495,9673879,41
1654002942,16086,161495,9673977,46
1654002942,16086,161495,9674037,44
1654002942,16086,161495,9674098,34
1654002942,16086,161495,9674134,29
1654002942,16086,161495,9674199,85
1654002942,16086,161495,9674264,278
1654002942,16086,161495,9674338,630
1654002942,16086,161495,9674418,919
1654002942,16086,161495,9674478,660
1654002942,16086,161495,9674541,-141
1654002942,16086,161495,9674613,-577
1654002942,16086,161495,9674704,-310
1654002942,16086,161495,9674791,-68
1654002942,16086,161495,9674847,-48
1654002942,16086,161495,9674903,12
1654002942,16086,161495,9674961,36
1654002942,16086,161495,9675014,14
1654002942,6857,161495,967508,24
1654002942,6857,161495,9675145,39
1654002942,6857,161495,9675227,53
1654002942,6857,161495,9675303,66
1654002942,6857,161495,9675369,46
1654002942,6857,161495,9675409,46
1654002942,6857,161495,9675468,80
1654002942,6857,161495,9675545,92
1654002942,6857,161495,9675624,75
1654002942,6857,161495,9675673,80
1654002942,6857,161495,9675722,127
1654002942,6857,161495,9675777,176
1654002942,6857,161495,9675848,202
1654002942,6857,161495,9675908,215
1654002942,6857,161495,9675966,227
1654002942,6857,161495,9676002,259
1654002942,6857,161495,9676038,310
1654002942,6857,161495,9676076,332
1654002942,6857,161495,9676115,335
1654002942,6857,161495,9676154,325
1654002942,6857,161495,9676192,269
1654002942,6857,161495,9676233,183
1654002942,6857,161495,9676266,139
1654002942,6857,161495,9680585,119
1654002942,6857,161495,9680685,58
1654002942,6857,161495,9680737,-26
1654002942,6857,161495,9680781,-44
1654002942,6857,161495,9680822,0
1654002942,6857,161495,9680863,-2
1654002942,6857,161495,9680905,-39
1654002942,6857,161495,9680977,-31
1654002942,6857,161495,9681043,-31
1654002942,6857,161495,9681097,-29
1654002942,6857,161495,9681168,14
1654002942,6857,161495,9681212,19
1654002942,6857,161495,9681273,-26
1654002942,6857,161495,9681337,-31
1654002942,6857,161495,9681381,-9
1654002942,6857,161495,9681441,-9
1654002942,6857,161495,9681484,9
1654002942,6857,161495,9681545,39
1654002942,6857,161495,9681607,19
1654002942,6857,161495,9681664,9
1654002942,6857,161495,9681704,22
1654002942,6857,161495,9681764,14
1654002942,6857,161495,9681894,19
1654002942,6857,161495,9681937,31
1654002942,6857,161495,9681983,31
1654002942,6857,161495,9682047,53
1654002942,6857,161495,9682087,68
1654002942,70166,161495,9682128,31
1654002942,70166,161496,5079791,26
1654002942,70166,161496,5080059,90
1654002942,70166,161496,5080183,92
1654002942,70166,161496,5080268,53
1654002942,70166,161496,508036,80
1654002942,70166,161496,5080463,92
1654002942,70166,161496,5080588,48
1654002942,70166,161496,5080631,36
1654002942,70166,161496,5080711,66
1654002942,70166,161496,5080803,56
1654002942,70166,161496,5080925,9
1654002942,70166,161496,508107,0
1654002942,70166,161496,5081219,14
1654002942,70166,161496,5081328,24
1654002942,70166,161496,508141,41
1654002942,70166,161496,5081498,85
1654002942,70166,161496,5081612,259
1654002942,70166,161496,5081721,621
1654002942,70166,161496,5081804,882
1654002942,70166,161496,5081904,545
1654002942,70166,161496,5081975,-220
1654002942,70166,161496,5082022,-533
1654002942,70166,161496,5082044,-273
1654002943,22494,161496,5082067,-80
1654002943,22494,161496,5082102,-36
1654002943,22494,161496,5082195,41
1654002943,22494,161496,5082279,63
1654002943,22494,161496,508236,36
1654002943,22494,161496,5082425,29
1654002943,22494,161496,5082538,44
1654002943,22494,161496,5082622,78
1654002943,22494,161496,5082687,97
1654002943,22494,161496,508274,73
1654002943,22494,161496,5082806,58
1654002943,22494,161496,5082877,68
1654002943,22494,161496,5082984,97
1654002943,22494,161496,5083071,139
1654002943,22494,161496,5083172,156
1654002943,22494,161496,5083244,171
1654002943,22494,161496,5083362,207
1654002943,22494,161496,5083473,256
1654002943,22494,161496,5083626,283
1654002943,22494,161496,5083701,269
1654002943,22494,161496,5083725,283
1654002943,22494,161496,5083748,344
1654002943,22494,161496,508377,364
1654002943,22494,161496,5083791,337
1654002943,22494,161496,5083812,325
1654002943,22494,161496,5083833,295
1654002943,22494,161496,5083855,232
1654002943,22494,161496,5083876,173
1654002943,22494,161496,5083897,102
1654002943,22494,161496,5083919,39
1654002943,22494,161496,508394,9
1654002943,22494,161496,5083962,-12
1654002943,22494,161496,5083984,-26
1654002943,22494,161496,5084005,-22
1654002943,22494,161496,5084027,-26
1654002943,22494,161496,508405,-22
1654002943,22494,161496,5084109,-4
1654002943,22494,161496,5084245,-22
1654002943,22494,161496,5084318,-36
1654002943,22494,161496,5084341,-14
1654002943,22494,161496,508437,9
1654002943,22494,161496,5084393,14
1654002943,22494,161496,5084414,12
1654002943,22494,161496,5084437,22
1654002943,22494,161496,5084462,36
1654002943,22494,161496,5084611,34
1654002943,22494,161496,5084708,14
1654002943,22494,161496,5084734,24
1654002943,22494,161496,5084756,51
1654002943,22494,161496,5084784,41
1654002943,23288,161497,0475055,26
1654002943,23288,161497,0475493,26
1654002943,23288,161497,0475867,29
1654002943,23288,161497,0476054,44
1654002943,23288,161497,0476201,46
1654002943,23288,161497,0476312,9
1654002943,23288,161497,0476437,-4
1654002943,23288,161497,04765,19
1654002943,23288,161497,0476579,9
1654002943,23288,161497,0476692,-12
1654002943,23288,161497,0476852,0
1654002943,23288,161497,0476999,9
1654002943,23288,161497,0477111,4
1654002943,23288,161497,0477237,9
1654002943,23288,161497,0477372,24
1654002943,23288,161497,0477469,34
1654002943,23288,161497,0477628,34
1654002943,23288,161497,0477781,36
1654002943,23288,161497,0477926,44
1654002943,23288,161497,0478079,48
1654002943,23288,161497,0478219,73
1654002943,23288,161497,047834,110
1654002943,23288,161497,047845,83
1654002943,23288,161497,0478596,34
1654002943,80797,161497,0478821,34
1654002943,80797,161497,0478908,51
1654002943,80797,161497,0478984,46
1654002943,80797,161497,0479065,31
1654002943,80797,161497,0479144,44
1654002943,80797,161497,0479212,66
1654002943,80797,161497,0479239,56
1654002943,80797,161497,0479262,31
1654002943,80797,161497,0479283,44
1654002943,80797,161497,0479306,151
1654002943,80797,161497,047933,435
1654002943,80797,161497,0479354,787
1654002943,80797,161497,0479377,799
1654002943,80797,161497,04794,183
1654002943,80797,161497,0479424,-471
1654002943,80797,161497,0479466,-418
1654002943,80797,161497,0479496,-100
1654002943,80797,161497,047958,-58
1654002943,80797,161497,0479722,-24
1654002943,80797,161497,0479804,66
1654002943,80797,161497,0479833,56
1654002943,80797,161497,0479931,41
1654002943,80797,161497,048001,66
1654002943,80797,161497,0480213,70
1654002943,80797,161497,0480303,61
1654002943,80797,161497,0480385,80
1654002943,80797,161497,0480443,110
1654002943,80797,161497,0480522,110
1654002943,80797,161497,0480587,117
1654002943,80797,161497,048153,141
1654002943,80797,161497,048174,149
1654002943,80797,161497,0481823,158
1654002943,80797,161497,048187,185
1654002943,80797,161497,0481928,202
1654002943,80797,161497,0481992,220
1654002943,80797,161497,0482038,259
1654002943,80797,161497,04821,300
1654002943,80797,161497,0482157,315
1654002943,80797,161497,0482223,317
1654002943,80797,161497,048227,332
1654002943,80797,161497,0482336,354
1654002943,80797,161497,0482387,354
1654002943,80797,161497,0482464,310
1654002943,80797,161497,048256,224
1654002943,80797,161497,0482648,134
1654002943,80797,161497,0482714,88
1654002943,80797,161497,0482796,41
1654002943,80797,161497,0482915,-2
1654002943,80797,161497,0482956,-19
1654002943,80797,161497,6326969,-48
1654002943,81495,161497,6327561,-56
1654002943,81495,161497,6327678,-4
1654002943,81495,161497,6327847,14
1654002943,81495,161497,6327996,-44
1654002943,81495,161497,6328321,-63
1654002943,81495,161497,6328585,22
1654002943,81495,161497,6328796,41
1654002943,81495,161497,6328952,-41
1654002943,81495,161497,6329068,-34
1654002943,81495,161497,6329217,29
1654002943,81495,161497,6329318,39
1654002943,81495,161497,632946,26
1654002943,81495,161497,6329599,19
1654002943,81495,161497,6329734,14
1654002943,81495,161497,6329939,26
1654002943,81495,161497,6330054,41
1654002943,81495,161497,6330109,24
1654002943,81495,161497,6330218,2
1654002943,81495,161497,6330354,22
1654002943,81495,161497,633053,46
1654002943,81495,161497,6330698,26
1654002943,81495,161497,6330882,4
1654002943,81495,161497,633131,26
1654002943,81495,161497,6331489,41
1654002944,43825,161497,6331657,29
1654002944,43825,161497,6331777,34
1654002944,43825,161497,6331874,34
1654002944,43825,161497,6331993,19
1654002944,43825,161497,6332121,34
1654002944,43825,161497,6332238,39
1654002944,43825,161497,6332336,4
1654002944,43825,161497,6332429,-7
1654002944,43825,161497,6332494,31
1654002944,43825,161497,633256,63
1654002944,43825,161497,6332644,53
1654002944,43825,161497,6332727,44
1654002944,43825,161497,6332826,46
1654002944,43825,161497,6332904,34
1654002944,43825,161497,633299,17
1654002944,43825,161497,6333061,12
1654002944,43825,161497,6333119,17
1654002944,43825,161497,6333223,26
1654002944,43825,161497,6333293,44
1654002944,43825,161497,6333341,48
1654002944,43825,161497,6333393,31
1654002944,43825,161497,6333442,9
1654002944,43825,161497,6333505,31
1654002944,43825,161497,633356,70
1654002944,43825,161497,6333618,73
1654002944,43825,161497,6333683,41
1654002944,43825,161497,6333762,29
1654002944,43825,161497,633386,41
1654002944,43825,161497,6333908,51
1654002944,43825,161497,6334035,34
1654002944,43825,161497,6334243,-2
1654002944,43825,161497,6334416,4
1654002944,43825,161497,6334598,44
1654002944,43825,161497,6334749,26
1654002944,43825,161497,6334906,-7
1654002944,43825,161497,6335062,14
1654002944,43825,161497,6335186,46
1654002944,43825,161497,633527,100
1654002944,43825,161497,6335354,305
1654002944,43825,161497,6335391,635
1654002944,43825,161497,6335479,755
1654002944,43825,161497,6335583,286
1654002944,43825,161497,6335946,-418
1654002944,43825,161497,6336089,-540
1654002944,43825,161497,6336235,-234
1654002944,43825,161497,6336382,-92
1654002944,43825,161497,633653,-48
1654002944,43825,161497,6336644,9
1654002944,43825,161498,2631069,4
1654002944,43825,161498,2631248,-12
1654002944,44723,161498,2631293,0
1654002944,44723,161498,263132,12
1654002944,44723,161498,2631345,53
1654002944,44723,161498,2631367,119
1654002944,44723,161498,2631389,129
1654002944,44723,161498,2631412,80
1654002944,44723,161498,2631435,61
1654002944,44723,161498,2631457,63
1654002944,44723,161498,2631478,66
1654002944,44723,161498,2631501,114
1654002944,44723,161498,2631522,190
1654002944,44723,161498,2631549,202
1654002944,44723,161498,2631571,195
1654002944,44723,161498,2631593,232
1654002944,44723,161498,2631616,264
1654002944,44723,161498,2631638,286
1654002944,44723,161498,2631663,322
1654002944,44723,161498,2631684,330
1654002944,44723,161498,2631707,305
1654002944,44723,161498,2631729,332
1654002944,44723,161498,2631751,352
1654002944,44723,161498,2631775,264
1654002944,44723,161498,2631808,176
1654002944,44723,161498,2631857,185
1654002944,93381,161498,2631939,163
1654002944,93381,161498,2631979,61
1654002944,93381,161498,2632014,17
1654002944,93381,161498,2632061,26
1654002944,93381,161498,2632145,-9
1654002944,93381,161498,2632216,-39
1654002944,93381,161498,2632241,-26
1654002944,93381,161498,2632275,-12
1654002944,93381,161498,2632343,-2
1654002944,93381,161498,2632467,0
1654002944,93381,161498,2632552,-12
1654002944,93381,161498,2632639,0
1654002944,93381,161498,2632758,44
1654002944,93381,161498,2632844,75
1654002944,93381,161498,2632913,73
1654002944,93381,161498,2632949,61
1654002944,93381,161498,2632982,39
1654002944,93381,161498,2633014,24
1654002944,93381,161498,2633049,24
1654002944,93381,161498,2633081,34
1654002944,93381,161498,2633115,44
1654002944,93381,161498,2633157,44
1654002944,93381,161498,2633209,26
1654002944,93381,161498,2633246,17
1654002944,93381,161498,263328,39
1654002944,93381,161498,2633317,56
1654002944,93381,161498,2633376,51
1654002944,93381,161498,2633411,34
1654002944,93381,161498,2633483,29
1654002944,93381,161498,2633569,29
1654002944,93381,161498,2633611,29
1654002944,93381,161498,2633683,29
1654002944,93381,161498,2633771,29
1654002944,93381,161498,2633899,41
1654002944,93381,161498,2633975,51
1654002944,93381,161498,2634085,51
1654002944,93381,161498,2634191,56
1654002944,93381,161498,2634338,61
1654002944,93381,161498,2634439,63
1654002944,93381,161498,2634534,58
1654002944,93381,161498,2634621,48
1654002944,93381,161498,2634668,68
1654002944,93381,161498,2634736,92
1654002944,93381,161498,2634776,92
1654002944,93381,161498,2634839,102
1654002944,93381,161498,2634921,122
1654002944,93381,161498,2634974,110
1654002944,93381,161498,7574175,95
1654002944,93381,161498,7574355,95
1654002944,93381,161498,7574403,90
1654002944,9398,161498,7574426,102
1654002944,9398,161498,7574447,112
1654002944,9398,161498,7574469,102
1654002944,9398,161498,7574491,95
1654002944,9398,161498,7574513,95
1654002944,9398,161498,7574534,107
1654002944,9398,161498,7574556,178
1654002944,9398,161498,7574577,381
1654002944,9398,161498,7574609,733
1654002944,9398,161498,7574716,978
1654002944,9398,161498,7574774,648
1654002944,9398,161498,7574865,-129
1654002944,9398,161498,7574941,-481
1654002944,9398,161498,757508,-232
1654002944,9398,161498,7575221,-36
1654002944,9398,161498,7575326,4
1654002944,9398,161498,7575407,95
1654002944,9398,161498,7575482,132
1654002944,9398,161498,7575535,100
1654002944,9398,161498,7575606,105
1654002944,9398,161498,7575677,132
1654002944,9398,161498,75758,146
1654002944,9398,161498,7575886,151
1654002944,9398,161498,757592,151
1654002945,5175,161498,7575958,161
1654002945,5175,161498,7575991,171

1654002945,5175,161498,7576021,178
1654002945,5175,161498,7576051,202
1654002945,5175,161498,7576081,222
1654002945,5175,161498,7576116,229
1654002945,5175,161498,7576207,234
1654002945,5175,161498,757634,251
1654002945,5175,161498,7576445,298
1654002945,5175,161498,7576531,352
1654002945,5175,161498,757661,364
1654002945,5175,161498,7576683,371
1654002945,5175,161498,7576739,410
1654002945,5175,161498,7576792,427
1654002945,5175,161498,7576847,408
1654002945,5175,161498,7576956,381
1654002945,5175,161498,7577036,337
1654002945,5175,161498,7577091,256
1654002945,5175,161498,7577116,171
1654002945,5175,161498,7577219,100
1654002945,5175,161498,757734,39
1654002945,5175,161498,7577469,2
1654002945,5175,161498,7577582,-9
1654002945,5175,161498,7577742,-22
1654002945,5175,161498,7577825,-26
1654002945,5175,161498,7577863,-19
1654002945,5175,161498,7578004,-17
1654002945,5175,161498,7578095,-22
1654002945,5175,161498,7578129,-17
1654002945,5175,161498,7578169,-12
1654002945,5175,161498,7578249,-9
1654002945,5175,161498,757839,-7
1654002945,5175,161498,7578479,7
1654002945,5175,161498,7578549,22
1654002945,5175,161498,7578604,31
1654002945,5175,161498,7578724,29
1654002945,5175,161498,757886,24
1654002945,5175,161498,7578988,34
1654002945,5175,161498,7579067,39
1654002945,5175,161498,7579102,36
1654002945,5175,161498,7579139,39
1654002945,5175,161498,757916,44
1654002945,5175,161498,7579181,51
1654002945,5175,161498,7579202,48
1654002945,5175,161498,7579224,46
1654002945,5175,161498,7579246,56
1654002945,5175,161499,3433581,63
1654002945,5175,161499,3434012,56
1654002945,5175,161499,3434349,51
1654002945,5175,161499,3434624,56
1654002945,52448,161499,3434789,61
1654002945,52448,161499,3434961,58
1654002945,52448,161499,343517,58
1654002945,52448,161499,3435312,58
1654002945,52448,161499,3435436,51
1654002945,52448,161499,3435532,51
1654002945,52448,161499,3435625,56
1654002945,52448,161499,3435832,48
1654002945,52448,161499,3435972,53
1654002945,52448,161499,3436057,70
1654002945,52448,161499,3436206,75
1654002945,52448,161499,3436347,75
1654002945,52448,161499,3436505,90
1654002945,52448,161499,343662,112
1654002945,52448,161499,3436813,102
1654002945,52448,161499,343699,80
1654002945,52448,161499,3437143,78
1654002945,52448,161499,3437256,80
1654002945,52448,161499,3437376,70
1654002945,52448,161499,3437514,75
1654002945,52448,161499,343766,85
1654002945,52448,161499,3437817,78
1654002945,52448,161499,3437956,61
1654002945,52448,161499,3438095,70
1654002946,06207,161499,3438207,151
1654002946,06207,161499,3438311,379
1654002946,06207,161499,3438388,738
1654002946,06207,161499,3438465,929
1654002946,06207,161499,3438554,503
1654002946,06207,161499,3438625,-254
1654002946,06207,161499,3438704,-467
1654002946,06207,161499,3438782,-183
1654002946,06207,161499,3438855,-36
1654002946,06207,161499,3438942,2
1654002946,06207,161499,3439025,80
1654002946,06207,161499,3439107,68
1654002946,06207,161499,3439234,41
1654002946,06207,161499,3439331,80
1654002946,06207,161499,3439467,88
1654002946,06207,161499,3439548,68
1654002946,06207,161499,3439653,85
1654002946,06207,161499,3439756,107
1654002946,06207,161499,3439898,105
1654002946,06207,161499,3440001,107
1654002946,06207,161499,3440087,119
1654002946,06207,161499,3440173,127
1654002946,06207,161499,3440319,136
1654002946,06207,161499,3440425,154
1654002946,06207,161499,3440566,176
1654002946,06207,161499,3440715,200
1654002946,06207,161499,3440858,224
1654002946,06207,161499,3440951,251
1654002946,06207,161499,3440977,281
1654002946,06207,161499,3440999,308
1654002946,06207,161499,3441021,332
1654002946,06207,161499,3441043,344
1654002946,06207,161499,3441066,335
1654002946,06207,161499,3441102,303
1654002946,06207,161499,3441125,254
1654002946,06207,161499,3441146,183
1654002946,06207,161499,3441168,119
1654002946,06207,161499,344119,70
1654002946,06207,161499,3441214,12
1654002946,06207,161499,3441249,-41
1654002946,06207,161499,344127,-53
1654002946,06207,161499,34413,-46
1654002946,06207,161499,3441329,-48
1654002946,06207,161499,344142,-56
1654002946,06207,161499,3441529,-61
1654002946,06207,161499,8823263,-63
1654002946,06207,161499,8823453,-48
1654002946,06207,161499,8823496,-34
1654002946,06207,161499,8823545,-34
1654002946,06207,161499,8823578,-31
1654002946,09199,161499,8823691,-19
1654002946,09199,161499,882383,-14
1654002946,09199,161499,8823921,-9
1654002946,09199,161499,8824015,-2
1654002946,09199,161499,8824169,0
1654002946,09199,161499,8824462,2
1654002946,09199,161499,8824595,-9
1654002946,09199,161499,8824662,-34
1654002946,09199,161499,882473,-31
1654002946,09199,161499,8824777,-12
1654002946,09199,161499,8824824,-2
1654002946,09199,161499,8824871,-7
1654002946,09199,161499,8824917,-12
1654002946,09199,161499,8824965,-9
1654002946,09199,161499,8825417,-12
1654002946,09199,161499,8825478,-4
1654002946,09199,161499,8825514,7
1654002946,09199,161499,8825549,7
1654002946,09199,161499,8825585,2
1654002946,09199,161499,8825619,7
1654002946,09199,161499,8825652,14
1654002946,09199,161499,8825688,9
1654002946,09199,161499,8830026,14
1654002946,09199,161499,883012,17
1654002946,6012,161499,8830218,9
1654002946,6012,161499,883029,22
1654002946,6012,161499,8830354,31
1654002946,6012,161499,8830411,29
1654002946,6012,161499,8830468,41
1654002946,6012,161499,8830569,46
1654002946,6012,161499,8830653,22
1654002946,6012,161499,883073,7
1654002946,6012,161499,8830791,19
1654002946,6012,161499,883087,26
1654002946,6012,161499,8830968,24
1654002946,6012,161499,8831038,24
1654002946,6012,161499,8831105,24
1654002946,6012,161499,8831171,19
1654002946,6012,161499,8831255,31
1654002946,6012,161499,8831341,141
1654002946,6012,161499,8831398,408
1654002946,6012,161499,8831454,758
1654002946,6012,161499,8831508,846
1654002946,6012,161499,8831595,315
1654002946,6012,161499,8831716,-408
1654002946,6012,161499,8831822,-515
1654002946,6012,161499,8831976,-224
1654002946,6012,161499,8832093,-105
1654002946,6012,161499,8832174,-41
1654002946,6012,161499,8832251,58
1654002946,6012,161499,8832316,53
1654002946,6012,161499,8832398,26
1654002946,6012,161499,8832473,56
1654002946,6012,161499,8832547,66
1654002946,6012,161499,8832627,61
1654002946,6012,161499,8832735,73
1654002946,6012,161499,8832811,85
1654002946,6012,161499,8832898,92
1654002946,6012,161499,8832991,105
1654002946,6012,161499,8833032,117
1654002946,6012,161499,8833067,127
1654002946,6012,161499,8833102,136
1654002946,6012,161499,883314,161
1654002946,6012,161499,8833287,190
1654002946,6012,161499,8833359,220
1654002946,6012,161499,8833401,249
1654002946,6012,161499,883347,283
1654002946,6012,161499,8833541,322
1654002946,6012,161500,4221477,347
1654002946,6012,161500,4221725,369
1654002946,6012,161500,4221813,381
1654002946,6012,161500,4221911,361
1654002946,6012,161500,4222001,325
1654002946,6012,161500,4222105,273
1654002946,60917,161500,4222224,205
1654002946,60917,161500,4222317,132
1654002946,60917,161500,4222391,61
1654002946,60917,161500,4222432,4
1654002946,60917,161500,4222488,-14
1654002946,60917,161500,4222525,-24
1654002946,60917,161500,4222559,-44
1654002946,60917,161500,4222614,-53
1654002946,60917,161500,4222699,-51
1654002946,60917,161500,4222836,-39
1654002946,60917,161500,4222923,-34
1654002946,60917,161500,4223026,-36
1654002946,60917,161500,4223092,-29
1654002946,60917,161500,422323,-9
1654002946,60917,161500,4223365,0
1654002946,60917,161500,4223496,0
1654002946,60917,161500,4223602,9
1654002946,60917,161500,4223684,17
1654002946,60917,161500,422378,14
1654002946,60917,161500,4223867,7
1654002946,60917,161500,4223952,2
1654002946,60917,161500,4224015,9
1654002946,60917,161500,4224039,22
1654002946,60917,161500,4224079,19
1654002947,13853,161500,4224101,19
1654002947,13853,161500,4224122,29
1654002947,13853,161500,422415,26
1654002947,13853,161500,4224233,26
1654002947,13853,161500,4224295,41
1654002947,13853,161500,4224339,44
1654002947,13853,161500,4224379,41
1654002947,13853,161500,4224414,44
1654002947,13853,161500,4224468,53
1654002947,13853,161500,4224511,58
1654002947,13853,161500,4224565,61
1654002947,13853,161500,4224606,61
1654002947,13853,161500,4224659,63
1654002947,13853,161500,4224703,66
1654002947,13853,161500,4224738,66
1654002947,13853,161500,4224786,78
1654002947,13853,161500,4224838,95
1654002947,13853,161500,4224942,100
1654002947,13853,161500,4225012,105
1654002947,13853,161500,422515,105
1654002947,13853,161500,4225231,90
1654002947,13853,161500,4225254,78
1654002947,13853,161500,4225279,78
1654002947,13853,161500,4225301,83
1654002947,13853,161500,4225322,80
1654002947,13853,161500,4225344,80
1654002947,13853,161500,4225365,85
1654002947,13853,161500,4225387,83
1654002947,13853,161500,4225408,102
1654002947,13853,161500,4225429,205
1654002947,13853,161500,4225451,459
1654002947,13853,161500,4225474,814
1654002947,13853,161500,422554,936
1654002947,13853,161500,4225651,427
1654002947,13853,161500,4225731,-332
1654002947,13853,161500,4225829,-484
1654002947,13853,161500,4225951,-183
1654002947,13853,161500,4226066,-46
1654002947,13853,161500,4226192,7
1654002947,13853,161500,4226304,107
1654002947,13853,161500,4226405,117
1654002947,13853,161500,4226467,85
1654002947,13853,161500,4226517,100
1654002947,13853,161500,9628055,117
1654002947,13853,161500,9628233,112
1654002947,13853,161500,9628286,119
1654002947,13853,161500,9628336,132
1654002947,13853,161500,9628361,134
1654002947,13853,161500,9628396,132
1654002947,13853,161500,9628419,129
1654002947,14654,161500,9628443,136
1654002947,14654,161500,9628468,156
1654002947,14654,161500,9628493,171
1654002947,14654,161500,9628577,188
1654002947,14654,161500,9628671,217
1654002947,14654,161500,9628727,251
1654002947,14654,161500,9628847,286
1654002947,14654,161500,9628915,325
1654002947,14654,161500,9628939,357
1654002947,14654,161500,9628962,366
1654002947,14654,161500,9628983,361
1654002947,14654,161500,9629006,354
1654002947,14654,161500,9629027,330
1654002947,14654,161500,9629061,271
1654002947,14654,161500,9629187,195
1654002947,14654,161500,9629309,127
1654002947,14654,161500,962936,70
1654002947,14654,161500,9629383,22
1654002947,14654,161500,9629406,-9
1654002947,14654,161500,9629466,-26
1654002947,14654,161500,9629617,-29
1654002947,14654,161500,9629731,-24
1654002947,14654,161500,9629767,-24
1654002947,14654,161500,9629813,-24
1654002947,77294,161500,9629903,-19
1654002947,77294,161500,9630014,-19
1654002947,77294,161500,9630125,-4
1654002947,77294,161500,9630229,19
1654002947,77294,161500,9630265,19
1654002947,77294,161500,9630286,14
1654002947,77294,161500,9630306,19
1654002947,77294,161500,9630334,26
1654002947,77294,161500,9630378,31
1654002947,77294,161500,963045,31
1654002947,77294,161500,963052,29
1654002947,77294,161500,9630599,44
1654002947,77294,161500,9630654,51
1654002947,77294,161500,963073,41
1654002947,77294,161500,9630783,44
1654002947,77294,161500,9630859,46
1654002947,77294,161500,9630915,39
1654002947,77294,161500,963096,48
1654002947,77294,161500,9630981,61
1654002947,77294,161500,9631002,58
1654002947,77294,161500,9631024,58
1654002947,77294,161500,9631045,66
1654002947,77294,161500,9631074,66
1654002947,77294,161500,9631097,61
1654002947,77294,161500,9631119,66
1654002947,77294,161500,963114,75
1654002947,77294,161500,9631162,78
1654002947,77294,161500,9631183,73
1654002947,77294,161500,9631205,83
1654002947,77294,161500,9631228,88
1654002947,77294,161500,9631251,85
1654002947,77294,161500,9631273,95
1654002947,77294,161500,9631295,122
1654002947,77294,161500,9631317,119
1654002947,77294,161500,9631339,88
1654002947,77294,161500,963136,85
1654002947,77294,161500,9631382,97
1654002947,77294,161500,9631408,90
1654002947,77294,161500,9631476,88
1654002947,77294,161500,963155,95
1654002947,77294,161500,9631606,88
1654002947,77294,161500,9631659,70
1654002947,77294,161501,5923697,73
1654002947,77294,161501,5923986,139
1654002947,77294,161501,592405,313
1654002947,77294,161501,5924088,638
1654002947,77294,161501,592411,921
1654002947,77294,161501,5924134,684
1654002947,77294,161501,5924165,-83
1654002947,77294,161501,592419,-528
1654002947,77893,161501,5924217,-310
1654002947,77893,161501,5924244,-83
1654002947,77893,161501,5924267,-41
1654002947,77893,161501,592429,51
1654002947,77893,161501,5924313,90
1654002947,77893,161501,5924336,53
1654002947,77893,161501,592436,75
1654002947,77893,161501,5924384,105
1654002947,77893,161501,5924407,90
1654002947,77893,161501,5924429,92
1654002947,77893,161501,5924458,112
1654002947,77893,161501,5924482,117
1654002947,77893,161501,5924516,124
1654002947,77893,161501,592461,139
1654002947,77893,161501,5924709,149
1654002947,77893,161501,5924784,158
1654002947,77893,161501,5924827,178
1654002947,77893,161501,5924891,212
1654002947,77893,161501,5924982,242
1654002947,77893,161501,5925103,256
1654002947,77893,161501,5925243,276
1654002947,77893,161501,5925371,313
1654002947,77893,161501,5925499,342
1654002947,77893,161501,5925543,357
1654002948,30574,161501,5925566,357
1654002948,30574,161501,5925589,352
1654002948,30574,161501,5925613,335
1654002948,30574,161501,5925635,286
1654002948,30574,161501,5925659,210
1654002948,30574,161501,592568,144
1654002948,30574,161501,5925702,80
1654002948,30574,161501,5925731,24
1654002948,30574,161501,5925753,-9
1654002948,30574,161501,5925775,-24
1654002948,30574,161501,5925805,-31
1654002948,30574,161501,5925896,-34
1654002948,30574,161501,5926014,-36
1654002948,30574,161501,5926091,-41
1654002948,30574,161501,5926145,-36
1654002948,30574,161501,5926227,-24
1654002948,30574,161501,5926289,-7
1654002948,30574,161501,5926369,2
1654002948,30574,161501,5926423,-2
1654002948,30574,161501,5926476,-9
1654002948,30574,161501,5926553,-4
1654002948,30574,161501,5926609,7
1654002948,30574,161501,5926918,22
1654002948,30574,161501,5926976,31
1654002948,30574,161501,5927049,31
1654002948,30574,161501,5927104,29
1654002948,30574,161501,5927177,31
1654002948,30574,161501,59273,39
1654002948,30574,161501,5927455,46
1654002948,30574,161501,5927576,41
1654002948,30574,161501,592769,29
1654002948,30574,161501,5927799,31
1654002948,30574,161501,5927892,41
1654002948,30574,161501,5927932,39
1654002948,30574,161501,5927954,36
1654002948,30574,161501,5927996,44
1654002948,30574,161501,5928151,41
1654002948,30574,161501,592829,46
1654002948,30574,161501,5928428,58
1654002948,30574,161501,5928507,53
1654002948,30574,161501,5928629,51
1654002948,30574,161502,1324888,58
1654002948,30574,161502,1325064,63
1654002948,30574,161502,1325096,66
1654002948,30574,161502,1325123,66
1654002948,30574,161502,1325148,53
1654002948,30574,161502,1325171,56
1654002948,30574,161502,1325195,68
1654002948,30574,161502,1325219,75
1654002948,30574,161502,1325242,80
1654002948,31871,161502,1325266,85
1654002948,31871,161502,1325288,78
1654002948,31871,161502,132531,58
1654002948,31871,161502,1325334,41
1654002948,31871,161502,1325376,36
1654002948,31871,161502,1325401,36
1654002948,31871,161502,1325425,41
1654002948,31871,161502,1325448,48
1654002948,31871,161502,1325472,41
1654002948,31871,161502,1325498,46
1654002948,31871,161502,132552,124
1654002948,31871,161502,1325556,352
1654002948,31871,161502,1325582,721
1654002948,31871,161502,1325606,921
1654002948,31871,161502,1325629,491
1654002948,31871,161502,1325652,-288
1654002948,31871,161502,1325676,-511
1654002948,31871,161502,13257,-205
1654002948,31871,161502,1325724,-44
1654002948,31871,161502,1325749,-7
1654002948,31871,161502,1325782,75
1654002948,31871,161502,1325835,88
1654002948,31871,161502,1325908,70
1654002948,31871,161502,1325947,95
1654002948,84604,161502,1325984,112
1654002948,84604,161502,1326049,112
1654002948,84604,161502,1326135,122
1654002948,84604,161502,132622,129
1654002948,84604,161502,1326314,129
1654002948,84604,161502,1326387,132
1654002948,84604,161502,1326505,149
1654002948,84604,161502,1326627,166
1654002948,84604,161502,1326749,176
1654002948,84604,161502,1326906,195
1654002948,84604,161502,1326995,217
1654002948,84604,161502,1327027,242
1654002948,84604,161502,132705,273
1654002948,84604,161502,1327071,310
1654002948,84604,161502,1327093,335
1654002948,84604,161502,1327115,347
1654002948,84604,161502,1327136,369
1654002948,84604,161502,1327157,383
1654002948,84604,161502,1327178,374
1654002948,84604,161502,1327206,342
1654002948,84604,161502,1327317,278
1654002948,84604,161502,1327443,198
1654002948,84604,161502,1327511,127
1654002948,84604,161502,1327591,63
1654002948,84604,161502,1327657,7
1654002948,84604,161502,1327721,-26
1654002948,84604,161502,1327771,-41
1654002948,84604,161502,1327833,-46
1654002948,84604,161502,1327867,-48
1654002948,84604,161502,1327905,-53
1654002948,84604,161502,1327962,-53
1654002948,84604,161502,1328041,-41
1654002948,84604,161502,132812,-39
1654002948,84604,161502,1328194,-39
1654002948,84604,161502,1328269,-26
1654002948,84604,161502,1328321,-22
1654002948,84604,161502,1328378,-34
1654002948,84604,161502,1328417,-31
1654002948,84604,161502,1328466,-14
1654002948,84604,161502,1328522,-14
1654002948,84604,161502,6724503,-14
1654002948,84604,161502,6724705,-4
1654002948,84604,161502,6724745,-4
1654002948,84604,161502,6724807,-12
1654002948,84604,161502,6724836,-4
1654002948,84604,161502,6724904,12
1654002948,84604,161502,6724949,7
1654002948,84604,161502,6724976,-4
1654002948,84604,161502,6725017,2
1654002948,84604,161502,6725046,2
1654002948,85303,161502,6725092,-12
1654002948,85303,161502,6725195,-9
1654002948,85303,161502,6725278,-4
1654002948,85303,161502,6725321,-9
1654002948,85303,161502,67254,-9
1654002948,85303,161502,6725521,0
1654002948,85303,161502,6725579,2
1654002948,85303,161502,6725642,0
1654002948,85303,161502,6725736,7
1654002948,85303,161502,6725865,14
1654002948,85303,161502,6725917,14
1654002948,85303,161502,6725947,14
1654002948,85303,161502,6725977,17
1654002948,85303,161502,6726067,22
1654002948,85303,161502,6726203,29
1654002948,85303,161502,6726265,41
1654002948,85303,161502,6726288,48
1654002948,85303,161502,672631,53
1654002948,85303,161502,6726332,56
1654002948,85303,161502,6726359,46
1654002948,85303,161502,672638,36
1654002948,85303,161502,6726402,41
1654002948,85303,161502,6726423,41
1654002948,85303,161502,6726444,36
1654002949,43698,161502,6726467,31
1654002949,43698,161502,6726488,34
1654002949,43698,161502,6726512,34
1654002949,43698,161502,6726532,19
1654002949,43698,161502,6726552,26
1654002949,43698,161502,6726572,122
1654002949,43698,161502,6726593,374
1654002949,43698,161502,6726613,738
1654002949,43698,161502,6726633,892
1654002949,43698,161502,6726652,425
1654002949,43698,161502,6726674,-339
1654002949,43698,161502,6726695,-535
1654002949,43698,161502,6726717,-234
1654002949,43698,161502,6726738,-73
1654002949,43698,161502,6726758,-22
1654002949,43698,161502,6726778,58
1654002949,43698,161502,6726798,58
1654002949,43698,161502,6726819,31
1654002949,43698,161502,6726839,56
1654002949,43698,161502,6726859,80
1654002949,43698,161502,6726879,83
1654002949,43698,161502,6726899,88
1654002949,43698,161502,6726919,88
1654002949,43698,161502,672694,88
1654002949,43698,161502,6726961,105
1654002949,43698,161502,6726982,119
1654002949,43698,161502,672701,132
1654002949,43698,161502,6727097,144
1654002949,43698,161502,6727182,156
1654002949,43698,161502,6727257,178
1654002949,43698,161502,6727333,210
1654002949,43698,161502,6727413,242
1654002949,43698,161502,6727518,269
1654002949,43698,161502,6727598,298
1654002949,43698,161502,6727701,322
1654002949,43698,161502,6727769,335
1654002949,43698,161502,6727794,347
1654002949,43698,161502,6727817,347
1654002949,43698,161502,6727839,308
1654002949,43698,161503,2576843,246
1654002949,43698,161503,2577524,176
1654002949,43698,161503,2577782,107
1654002949,43698,161503,2578192,39
1654002949,43698,161503,2578548,-14
1654002949,43698,161503,2578757,-51
1654002949,43698,161503,257892,-88
1654002949,43698,161503,2579044,-114
1654002949,43698,161503,2579136,-119
1654002949,43698,161503,2579316,-110
1654002949,43698,161503,2579489,-100
1654002949,44396,161503,2579638,-90
1654002949,44396,161503,2579771,-85
1654002949,44396,161503,2579866,-78
1654002949,44396,161503,2579922,-66
1654002949,44396,161503,2580062,-56
1654002949,44396,161503,2580163,-48
1654002949,44396,161503,2580221,-48
1654002949,44396,161503,258044,-41
1654002949,44396,161503,2580473,-24
1654002949,44396,161503,2580738,-17
1654002949,44396,161503,2580777,-14
1654002949,44396,161503,2580837,-12
1654002949,44396,161503,2580874,-4
1654002949,44396,161503,2580909,-2
1654002949,44396,161503,2580943,-4
1654002949,44396,161503,2580996,0
1654002949,44396,161503,2581038,9
1654002949,44396,161503,2581094,14
1654002949,44396,161503,2581168,17
1654002949,44396,161503,2581261,19
1654002949,44396,161503,2581332,24
1654002949,44396,161503,2581371,29
1654002949,44396,161503,2581505,31
1654002949,44396,161503,2581605,34
1654002949,9786,161503,2581707,41
1654002949,9786,161503,2581793,44
1654002949,9786,161503,2581864,36
1654002949,9786,161503,2581935,44
1654002949,9786,161503,2582011,56
1654002949,9786,161503,2582089,53
1654002949,9786,161503,2582158,46
1654002949,9786,161503,2582209,56
1654002949,9786,161503,2582259,70
1654002949,9786,161503,2582293,75
1654002949,9786,161503,2582331,88
1654002949,9786,161503,258237,105
1654002949,9786,161503,2582405,102
1654002949,9786,161503,2582442,80
1654002949,9786,161503,2582504,68
1654002949,9786,161503,2582575,70
1654002949,9786,161503,2582633,70
1654002949,9786,161503,2582687,75
1654002949,9786,161503,2582765,80
1654002949,9786,161503,2582855,78
1654002949,9786,161503,2582913,58
1654002949,9786,161503,2582968,56
1654002949,9786,161503,2583042,139
1654002949,9786,161503,2583141,371
1654002949,9786,161503,2583221,743
1654002949,9786,161503,2583616,968
1654002949,9786,161503,2583805,572
1654002949,9786,161503,2583932,-242
1654002949,9786,161503,2584117,-540
1654002949,9786,161503,2584208,-229
1654002949,9786,161503,2584467,-39
1654002949,9786,161503,2584528,-9
1654002949,9786,161503,2584605,83
1654002949,9786,161503,2584646,110
1654002949,9786,161503,258473,75
1654002949,9786,161503,2584788,92
1654002949,9786,161503,2584823,110
1654002949,9786,161503,2584877,97
1654002949,9786,161503,7971704,102
1654002949,9786,161503,797187,124
1654002949,9786,161503,7971918,129
1654002949,9786,161503,797196,136
1654002949,9786,161503,7971995,154
1654002949,9786,161503,7972034,163
1654002949,9786,161503,7972057,171
1654002949,9786,161503,7972082,195
1654002949,9786,161503,7972141,232
1654002949,9786,161503,797224,244
1654002949,9786,161503,7972376,239
1654002949,9786,161503,7972469,264
1654002949,98658,161503,7972506,313
1654002949,98658,161503,7972529,339
1654002949,98658,161503,797255,347
1654002949,98658,161503,7972571,357
1654002949,98658,161503,7972592,361
1654002949,98658,161503,7972614,322
1654002949,98658,161503,7972637,261
1654002949,98658,161503,7972659,202
1654002949,98658,161503,7972687,136
1654002949,98658,161503,7972772,68
1654002949,98658,161503,7972857,12
1654002949,98658,161503,7972904,-19
1654002949,98658,161503,7972963,-36
1654002949,98658,161503,7973002,-48
1654002949,98658,161503,7973055,-56
1654002949,98658,161503,7973095,-46
1654002949,98658,161503,7973199,-41
1654002949,98658,161503,7973257,-46
1654002949,98658,161503,797328,-46
1654002949,98658,161503,7973301,-31
1654002949,98658,161503,7973323,-14
1654002949,98658,161503,7973345,-4
1654002949,98658,161503,7973366,-7
1654002949,98658,161503,7973389,-7
1654002950,51591,161503,797342,7
1654002950,51591,161503,7973442,17
1654002950,51591,161503,7973462,7
1654002950,51591,161503,7973483,7
1654002950,51591,161503,7973507,26
1654002950,51591,161503,7973527,41
1654002950,51591,161503,7973548,44
1654002950,51591,161503,7973568,31
1654002950,51591,161503,7973588,14
1654002950,51591,161503,7973608,17
1654002950,51591,161503,7973628,22
1654002950,51591,161503,7973648,19
1654002950,51591,161503,7973669,17
1654002950,51591,161503,797369,22
1654002950,51591,161503,7973711,26
1654002950,51591,161503,7973732,24
1654002950,51591,161503,7973753,17
1654002950,51591,161503,7973773,24
1654002950,51591,161503,7973793,31
1654002950,51591,161503,7973813,22
1654002950,51591,161503,7973834,12
1654002950,51591,161503,7973858,22
1654002950,51591,161503,797388,39
1654002950,51591,161503,7973901,41
1654002950,51591,161503,7973923,34
1654002950,51591,161503,7973946,31
1654002950,51591,161503,7973967,31
1654002950,51591,161503,7974002,36
1654002950,51591,161503,7974114,46
1654002950,51591,161503,7974188,48
1654002950,51591,161503,7974233,53
1654002950,51591,161503,7974297,56
1654002950,51591,161503,7974355,46
1654002950,51591,161503,7974568,31
1654002950,51591,161503,7974676,26
1654002950,51591,161503,7974772,14
1654002950,51591,161503,7974872,12
1654002950,51591,161504,337399,22
1654002950,51591,161504,337416,29
1654002950,51591,161504,3374203,17
1654002950,51591,161504,3374261,12
1654002950,51591,161504,3374291,24
1654002950,51591,161504,3374321,85
1654002950,51591,161504,3374349,317
1654002950,51591,161504,3374393,718
1654002950,51591,161504,337442,907
1654002950,51591,161504,3374464,430
1654002950,51591,161504,337461,-381
1654002950,51591,161504,3374693,-591
1654002950,51591,161504,337474,-254
1654002950,52887,161504,3374862,-95
1654002950,52887,161504,3374998,-83
1654002950,52887,161504,337505,-14
1654002950,52887,161504,3375083,-4
1654002950,52887,161504,3375107,-24
1654002950,52887,161504,337513,-12
1654002950,52887,161504,3375151,-7
1654002950,52887,161504,3375173,-12
1654002950,52887,161504,3375211,7
1654002950,52887,161504,3375363,17
1654002950,52887,161504,337546,7
1654002950,52887,161504,3375487,12
1654002950,52887,161504,337551,17
1654002950,52887,161504,3375532,19
1654002950,52887,161504,3375554,41
1654002950,52887,161504,3375575,70
1654002950,52887,161504,3375597,70
1654002950,52887,161504,3375618,66
1654002950,52887,161504,337564,105
1654002950,52887,161504,3375662,154
1654002950,52887,161504,3375683,168
1654002950,52887,161504,3375705,178
1654002950,52887,161504,3375727,215
1654002950,52887,161504,3375748,242
1654002951,14627,161504,337577,227
1654002951,14627,161504,3375793,185
1654002951,14627,161504,3375813,122
1654002951,14627,161504,3375833,39
1654002951,14627,161504,3375854,-44
1654002951,14627,161504,3375875,-110
1654002951,14627,161504,3375896,-171
1654002951,14627,161504,3375917,-205
1654002951,14627,161504,3375939,-217
1654002951,14627,161504,3376004,-227
1654002951,14627,161504,3376274,-234
1654002951,14627,161504,337637,-234
1654002951,14627,161504,3376404,-237
1654002951,14627,161504,3376429,-239
1654002951,14627,161504,3376451,-242
1654002951,14627,161504,3376473,-229
1654002951,14627,161504,3376495,-215
1654002951,14627,161504,3376517,-220
1654002951,14627,161504,3376541,-215
1654002951,14627,161504,3376563,-205
1654002951,14627,161504,3376585,-205
1654002951,14627,161504,3376614,-200
1654002951,14627,161504,3377529,-188
1654002951,14627,161504,3377702,-188
1654002951,14627,161504,3377833,-190
1654002951,14627,161504,337796,-193
1654002951,14627,161504,3378095,-195
1654002951,14627,161504,3378187,-195
1654002951,14627,161504,33783,-190
1654002951,14627,161504,3378456,-185
1654002951,14627,161504,3378595,-180
1654002951,14627,161504,3378668,-185
1654002951,14627,161504,3378699,-188
1654002951,14627,161504,3378791,-180
1654002951,14627,161504,3378921,-178
1654002951,14627,161504,3379024,-178
1654002951,14627,161504,9678014,-176
1654002951,14627,161504,9678684,-171
1654002951,14627,161504,9678852,-166
1654002951,14627,161504,9679006,-173
1654002951,14627,161504,9679158,-195
1654002951,14627,161504,9679539,-202
1654002951,14627,161504,967968,-183
1654002951,14627,161504,967982,-171
1654002951,14627,161504,9679963,-176
1654002951,14627,161504,9680102,-173
1654002951,14627,161504,9680264,-173
1654002951,14627,161504,9680421,-180
1654002951,14627,161504,9680561,-158
1654002951,14627,161504,9680702,-129
1654002951,15724,161504,9680844,-124
1654002951,15724,161504,9680936,-124
1654002951,15724,161504,9680964,-124
1654002951,15724,161504,9680989,-132
1654002951,15724,161504,9681014,-146
1654002951,15724,161504,9681039,-146
1654002951,15724,161504,9681061,-136
1654002951,15724,161504,9681088,-136
1654002951,15724,161504,9681167,-136
1654002951,15724,161504,9681299,-129
1654002951,15724,161504,9681439,-132
1654002951,15724,161504,968158,-127
1654002951,15724,161504,9681731,-48
1654002951,15724,161504,9681872,176
1654002951,15724,161504,9682015,545
1654002951,15724,161504,9682158,762
1654002951,15724,161504,9682302,352
1654002951,15724,161504,9682443,-445
1654002951,15724,161504,9682536,-692
1654002951,15724,161504,9682563,-379
1654002951,15724,161504,9682586,-207
1654002951,15724,161504,9682606,-168
1654002951,15724,161504,9682631,-85
1654002951,15724,161504,9682652,-83
1654002951,68213,161504,9682673,-107
1654002951,68213,161504,9682697,-75
1654002951,68213,161504,9682722,-58
1654002951,68213,161504,9682743,-63
1654002951,68213,161504,9682764,-58
1654002951,68213,161504,9682785,-53
1654002951,68213,161504,9682806,-48
1654002951,68213,161504,9682827,-34
1654002951,68213,161504,9682847,-22
1654002951,68213,161504,9682892,-12
1654002951,68213,161504,9682917,19
1654002951,68213,161504,9682938,56
1654002951,68213,161504,9682974,68
1654002951,68213,161504,9683066,88
1654002951,68213,161504,9683142,134
1654002951,68213,161504,9683249,173
1654002951,68213,161504,9683345,200
1654002951,68213,161504,9683422,234
1654002951,68213,161504,9683466,259
1654002951,68213,161504,9683517,261
1654002951,68213,161504,9683588,264
1654002951,68213,161504,9683662,254
1654002951,68213,161504,9683728,200
1654002951,68213,161504,9683805,124
1654002951,68213,161504,9683877,58
1654002951,68213,161504,9683972,0
1654002951,68213,161504,9684117,-41
1654002951,68213,161504,9684264,-63
1654002951,68213,161504,968441,-85
1654002951,68213,161504,9684553,-100
1654002951,68213,161504,9684693,-95
1654002951,68213,161504,9684835,-90
1654002951,68213,161504,9684979,-83
1654002951,68213,161504,9685123,-70
1654002951,68213,161504,9685256,-58
1654002951,68213,161505,507798,-58
1654002951,68213,161505,5078232,-58
1654002951,68213,161505,5078339,-51
1654002951,68213,161505,5078428,-36
1654002951,68213,161505,5078514,-19
1654002951,68213,161505,5078604,-9
1654002951,68213,161505,5078683,0
1654002951,68213,161505,5078774,4
1654002951,68213,161505,5078829,12
1654002951,68213,161505,5078975,9
1654002951,68213,161505,5079099,4
1654002951,68213,161505,5079203,12
1654002951,68213,161505,5079303,24
1654002951,68213,161505,5079369,9
1654002951,68213,161505,5079509,-2
1654002951,69651,161505,5079625,7
1654002951,69651,161505,5079726,22
1654002951,69651,161505,5079797,22
1654002951,69651,161505,5079925,22
1654002951,69651,161505,508003,31
1654002951,69651,161505,5080126,36
1654002951,69651,161505,5080204,29
1654002951,69651,161505,5080283,34
1654002951,69651,161505,508035,48
1654002951,69651,161505,5080505,58
1654002951,69651,161505,5080615,51
1654002951,69651,161505,5080691,44
1654002951,69651,161505,5080743,53
1654002951,69651,161505,5080788,61
1654002951,69651,161505,5080848,53
1654002951,69651,161505,5080904,61
1654002951,69651,161505,5080998,75
1654002951,69651,161505,5081092,78
1654002951,69651,161505,5081225,83
1654002951,69651,161505,508137,88
1654002951,69651,161505,5081507,97
1654002951,69651,161505,5081622,110
1654002951,69651,161505,5081702,110
1654002951,69651,161505,5081783,92
1654002952,22418,161505,5081855,88
1654002952,22418,161505,5081935,90
1654002952,22418,161505,5081983,97
1654002952,22418,161505,5082044,102
1654002952,22418,161505,5082122,97
1654002952,22418,161505,5082198,92
1654002952,22418,161505,5082292,97
1654002952,22418,161505,5082379,90
1654002952,22418,161505,5082641,112
1654002952,22418,161505,50827,239
1654002952,22418,161505,508275,535
1654002952,22418,161505,5082811,868
1654002952,22418,161505,5082869,821
1654002952,22418,161505,5082929,176
1654002952,22418,161505,5082998,-425
1654002952,22418,161505,5083077,-342
1654002952,22418,161505,5083149,-46
1654002952,22418,161505,5083198,22
1654002952,22418,161505,5083246,75
1654002952,22418,161505,5083329,132
1654002952,22418,161505,5083375,117
1654002952,22418,161505,5083483,117
1654002952,22418,161505,5083795,129
1654002952,22418,161505,5083926,119
1654002952,22418,161505,5084024,122
1654002952,22418,161505,5084131,144
1654002952,22418,161505,5084234,141
1654002952,22418,161505,5084344,136
1654002952,22418,161505,508446,156
1654002952,22418,161505,5084568,173
1654002952,22418,161505,5084694,180
1654002952,22418,161505,5084818,198
1654002952,22418,161505,5084924,220
1654002952,22418,161505,5085049,239
1654002952,22418,161506,0475229,261
1654002952,22418,161506,0475476,295
1654002952,22418,161506,0475584,342
1654002952,22418,161506,0475618,379
1654002952,22418,161506,0475658,391
1654002952,22418,161506,0475679,393
1654002952,22418,161506,0475725,403
1654002952,22418,161506,0475748,403
1654002952,22418,161506,0475769,366
1654002952,22418,161506,0475791,303
1654002952,22418,161506,0475813,220
1654002952,22418,161506,0475834,134
1654002952,22418,161506,0475855,78
1654002952,22418,161506,0475877,41
1654002952,22418,161506,0475899,9
1654002952,22418,161506,0475921,-2
1654002952,23615,161506,0475946,-7
1654002952,23615,161506,0475982,-19
1654002952,23615,161506,047611,-29
1654002952,23615,161506,0476229,-29
1654002952,23615,161506,0476291,-12
1654002952,23615,161506,0476314,4
1654002952,23615,161506,0476386,2
1654002952,23615,161506,0476495,4
1654002952,23615,161506,047659,17
1654002952,23615,161506,047667,22
1654002952,23615,161506,0476763,31
1654002952,23615,161506,0476868,46
1654002952,23615,161506,0476976,41
1654002952,23615,161506,0477073,39
1654002952,23615,161506,0477152,48
1654002952,23615,161506,0477271,53
1654002952,23615,161506,0477386,48
1654002952,23615,161506,0477465,61
1654002952,23615,161506,0477581,70
1654002952,23615,161506,0477702,66
1654002952,23615,161506,0477756,63
1654002952,23615,161506,0477803,68
1654002952,23615,161506,0477825,83
1654002952,23615,161506,0477848,90
1654002952,76845,161506,0477869,78
1654002952,76845,161506,047789,70
1654002952,76845,161506,047791,83
1654002952,76845,161506,0477931,100
1654002952,76845,161506,0477961,107
1654002952,76845,161506,0478049,107
1654002952,76845,161506,0478154,110
1654002952,76845,161506,0478209,117
1654002952,76845,161506,0478233,112
1654002952,76845,161506,0478254,107
1654002952,76845,161506,0478276,119
1654002952,76845,161506,0478297,129
1654002952,76845,161506,0478318,127
1654002952,76845,161506,0478338,139
1654002952,76845,161506,0478358,163
1654002952,76845,161506,0478377,173
1654002952,76845,161506,0478398,163
1654002952,76845,161506,0478463,156
1654002952,76845,161506,047857,144
1654002952,76845,161506,0478647,132
1654002952,76845,161506,0478678,132
1654002952,76845,161506,0478748,129
1654002952,76845,161506,0478819,127
1654002952,76845,161506,0478867,129
1654002952,76845,161506,0478912,132
1654002952,76845,161506,0478956,134
1654002952,76845,161506,0479026,163
1654002952,76845,161506,0479075,288
1654002952,76845,161506,047913,589
1654002952,76845,161506,0479167,943
1654002952,76845,161506,0479203,921
1654002952,76845,161506,0479294,264
1654002952,76845,161506,0479386,-408
1654002952,76845,161506,5875479,-376
1654002952,76845,161506,587574,-70
1654002952,76845,161506,5875812,22
1654002952,76845,161506,587586,105
1654002952,76845,161506,5875905,183
1654002952,76845,161506,5875947,149
1654002952,76845,161506,587599,134

1654002952,76845,161506,5876051,154
1654002952,76845,161506,5876088,134
1654002952,76845,161506,5876144,127
1654002952,76845,161506,5876183,146
1654002952,76845,161506,587624,146
1654002952,76845,161506,5876286,139
1654002952,76845,161506,5876324,154
1654002952,76845,161506,587636,168
1654002952,76845,161506,5876398,178
1654002952,76845,161506,5876455,195
1654002952,77642,161506,5876493,220
1654002952,77642,161506,5876554,242
1654002952,77642,161506,587659,266
1654002952,77642,161506,587667,298
1654002952,77642,161506,5876707,335
1654002952,77642,161506,5876757,369
1654002952,77642,161506,5876812,393
1654002952,77642,161506,587685,410
1654002952,77642,161506,5876901,420
1654002952,77642,161506,5876941,413
1654002952,77642,161506,5876996,381
1654002952,77642,161506,5877034,322
1654002952,77642,161506,5877085,244
1654002952,77642,161506,5877134,173
1654002952,77642,161506,5877199,117
1654002952,77642,161506,5877236,70
1654002952,77642,161506,587729,44
1654002952,77642,161506,5877328,36
1654002952,77642,161506,5877381,31
1654002952,77642,161506,5877418,24
1654002952,77642,161506,5877472,24
1654002952,77642,161506,5877508,31
1654002952,77642,161506,5877547,44
1654002952,77642,161506,58776,56
1654002953,35394,161506,587764,58
1654002953,35394,161506,5877679,53
1654002953,35394,161506,5877713,56
1654002953,35394,161506,5877748,78
1654002953,35394,161506,5877783,85
1654002953,35394,161506,5877816,80
1654002953,35394,161506,5877851,83
1654002953,35394,161506,5877885,83
1654002953,35394,161506,5877925,85
1654002953,35394,161506,5877964,95
1654002953,35394,161506,5877998,100
1654002953,35394,161506,5878034,92
1654002953,35394,161506,5878073,90
1654002953,35394,161506,5878111,90
1654002953,35394,161506,5878144,90
1654002953,35394,161506,5878179,97
1654002953,35394,161506,5878213,110
1654002953,35394,161506,5878248,112
1654002953,35394,161506,5878283,102
1654002953,35394,161506,5878319,95
1654002953,35394,161506,5878357,100
1654002953,35394,161506,5878391,112
1654002953,35394,161506,5878424,122
1654002953,35394,161506,5878456,122
1654002953,35394,161506,5878492,119
1654002953,35394,161506,5878547,124
1654002953,35394,161506,5878609,122
1654002953,35394,161506,5878648,117
1654002953,35394,161506,5878685,122
1654002953,35394,161506,5878741,136
1654002953,35394,161506,5878787,151
1654002953,35394,161506,587884,151
1654002953,35394,161507,172892,151
1654002953,35394,161507,1729112,156
1654002953,35394,161507,1729159,151
1654002953,35394,161507,1729189,132
1654002953,35394,161507,1729216,107
1654002953,35394,161507,1729244,88
1654002953,35394,161507,172928,80
1654002953,35394,161507,1729324,83
1654002953,35394,161507,172935,88
1654002953,35394,161507,1729374,80
1654002953,35394,161507,1729402,75
1654002953,35394,161507,1729439,100
1654002953,35394,161507,1729547,234
1654002953,35394,161507,1729632,569
1654002953,35394,161507,1729719,936
1654002953,35394,161507,1729789,855
1654002953,35394,161507,1729904,134
1654002953,35394,161507,1730044,-491
1654002953,36192,161507,1730152,-371
1654002953,36192,161507,173021,-48
1654002953,36192,161507,1730299,19
1654002953,36192,161507,173036,73
1654002953,36192,161507,1730403,129
1654002953,36192,161507,1730454,102
1654002953,36192,161507,1730535,100
1654002953,36192,161507,173058,132
1654002953,36192,161507,1730643,134
1654002953,36192,161507,1730693,124
1654002953,36192,161507,1730753,139
1654002953,36192,161507,1730805,149
1654002953,36192,161507,173088,146
1654002953,36192,161507,1730933,156
1654002953,36192,161507,1730993,183
1654002953,36192,161507,1731047,202
1654002953,36192,161507,1731106,210
1654002953,36192,161507,1731149,224
1654002953,36192,161507,1731222,259
1654002953,36192,161507,1731266,298
1654002953,36192,161507,1731311,322
1654002953,36192,161507,1731374,344
1654002953,36192,161507,1731417,371
1654002953,36192,161507,1731462,388
1654002953,89927,161507,1731533,405
1654002953,89927,161507,1731577,423
1654002953,89927,161507,1731621,415
1654002953,89927,161507,1731663,359
1654002953,89927,161507,1731705,283
1654002953,89927,161507,1731752,220
1654002953,89927,161507,1731795,154
1654002953,89927,161507,1731845,95
1654002953,89927,161507,1731895,53
1654002953,89927,161507,1731949,29
1654002953,89927,161507,1732016,14
1654002953,89927,161507,1732085,12
1654002953,89927,161507,1732163,12
1654002953,89927,161507,1732261,9
1654002953,89927,161507,1732358,12
1654002953,89927,161507,1732458,24
1654002953,89927,161507,1732546,34
1654002953,89927,161507,1732615,39
1654002953,89927,161507,1732646,39
1654002953,89927,161507,1732739,48
1654002953,89927,161507,1732891,63
1654002953,89927,161507,1733025,68
1654002953,89927,161507,1733176,63
1654002953,89927,161507,1733289,61
1654002953,89927,161507,1733368,70
1654002953,89927,161507,1733422,88
1654002953,89927,161507,1733479,88
1654002953,89927,161507,1733553,78
1654002953,89927,161507,1733591,63
1654002953,89927,161507,1733656,56
1654002953,89927,161507,1733796,63
1654002953,89927,161507,7129688,63
1654002953,89927,161507,7129876,66
1654002953,89927,161507,7129924,73
1654002953,89927,161507,7129984,78
1654002953,89927,161507,7130011,70
1654002953,89927,161507,7130047,70
1654002953,89927,161507,7130073,80
1654002953,89927,161507,71301,80
1654002953,89927,161507,7130126,70
1654002953,89927,161507,7130151,63
1654002953,89927,161507,7130176,63
1654002953,89927,161507,7130202,70
1654002953,89927,161507,7130242,75
1654002953,89927,161507,713039,78
1654002953,89927,161507,7130554,78
1654002953,89927,161507,7130637,85
1654002953,89927,161507,7130668,90
1654002953,89927,161507,7130703,90
1654002953,89927,161507,7130729,102
1654002953,90824,161507,7130752,129
1654002953,90824,161507,7130775,134
1654002953,90824,161507,7130798,107
1654002953,90824,161507,7130822,97
1654002953,90824,161507,7130846,102
1654002953,90824,161507,713087,95
1654002953,90824,161507,7130892,90
1654002953,90824,161507,7130916,97
1654002953,90824,161507,7130938,102
1654002953,90824,161507,7130962,100
1654002953,90824,161507,7130985,92
1654002953,90824,161507,7131033,102
1654002953,90824,161507,7131111,190
1654002953,90824,161507,7131169,452
1654002953,90824,161507,7131246,811
1654002953,90824,161507,7131313,887
1654002953,90824,161507,7131397,325
1654002953,90824,161507,7131457,-386
1654002953,90824,161507,7131538,-435
1654002953,90824,161507,7131597,-107
1654002953,90824,161507,7131655,14
1654002953,90824,161507,7131711,56
1654002953,90824,161507,713179,117
1654002953,90824,161507,7131825,112
1654002954,4801,161507,7131858,105
1654002954,4801,161507,7131891,127
1654002954,4801,161507,7131924,124
1654002954,4801,161507,7131955,110
1654002954,4801,161507,7131991,124
1654002954,4801,161507,7132086,149
1654002954,4801,161507,713218,146
1654002954,4801,161507,7132266,141
1654002954,4801,161507,7132353,158
1654002954,4801,161507,7132465,180
1654002954,4801,161507,7132578,193
1654002954,4801,161507,713268,202
1654002954,4801,161507,7132786,224
1654002954,4801,161507,7132886,256
1654002954,4801,161507,7133012,283
1654002954,4801,161507,7133137,310
1654002954,4801,161507,7133225,349
1654002954,4801,161507,7133334,374
1654002954,4801,161507,7133427,381
1654002954,4801,161507,7133505,388
1654002954,4801,161507,7133542,379
1654002954,4801,161507,7133567,337
1654002954,4801,161507,713359,276
1654002954,4801,161507,7133622,195
1654002954,4801,161507,7133741,122
1654002954,4801,161507,7133887,75
1654002954,4801,161507,7134029,36
1654002954,4801,161507,713421,4
1654002954,4801,161507,7134301,-7
1654002954,4801,161507,7134328,-17
1654002954,4801,161508,2972724,-26
1654002954,4801,161508,2972945,-19
1654002954,4801,161508,297299,-14
1654002954,4801,161508,2973046,-12
1654002954,4801,161508,2973077,-2
1654002954,4801,161508,2973122,0
1654002954,4801,161508,2973154,-12
1654002954,4801,161508,2973187,-12
1654002954,4801,161508,2973241,2
1654002954,4801,161508,297327,12
1654002954,4801,161508,2973326,12
1654002954,4801,161508,2973476,12
1654002954,4801,161508,2973591,26
1654002954,4801,161508,2973731,36
1654002954,4801,161508,2973775,29
1654002954,4801,161508,2973822,29
1654002954,4801,161508,2973847,39
1654002954,4801,161508,2973948,41
1654002954,4801,161508,2974078,41
1654002954,4801,161508,2974251,41
1654002954,49224,161508,2974428,41
1654002954,49224,161508,2974519,36
1654002954,49224,161508,2974558,34
1654002954,49224,161508,2974585,36
1654002954,49224,161508,2974611,36
1654002954,49224,161508,2974639,41
1654002954,49224,161508,297473,53
1654002954,49224,161508,297489,58
1654002954,49224,161508,297498,46
1654002954,49224,161508,2975013,41
1654002954,49224,161508,2975104,56
1654002954,49224,161508,2975261,68
1654002954,49224,161508,2975351,66
1654002954,49224,161508,2975381,58
1654002954,49224,161508,297542,68
1654002954,49224,161508,2975446,80
1654002954,49224,161508,2975472,80
1654002954,49224,161508,2975498,90
1654002954,49224,161508,2975522,107
1654002954,49224,161508,2975548,105
1654002954,49224,161508,2975595,92
1654002954,49224,161508,2975769,85
1654002954,49224,161508,2975923,80
1654002954,49224,161508,2976088,75
1654002955,05873,161508,2976175,78
1654002955,05873,161508,2976204,80
1654002955,05873,161508,2976229,75
1654002955,05873,161508,2976253,73
1654002955,05873,161508,2976276,78
1654002955,05873,161508,2976302,88
1654002955,05873,161508,2976326,166
1654002955,05873,161508,297635,415
1654002955,05873,161508,2976373,787
1654002955,05873,161508,2976398,909
1654002955,05873,161508,2976421,403
1654002955,05873,161508,2976447,-342
1654002955,05873,161508,2976473,-501
1654002955,05873,161508,2976497,-207
1654002955,05873,161508,2976521,-66
1654002955,05873,161508,2976544,-9
1654002955,05873,161508,2976568,75
1654002955,05873,161508,2976592,78
1654002955,05873,161508,2976616,63
1654002955,05873,161508,2976641,83
1654002955,05873,161508,2976664,90
1654002955,05873,161508,2976688,90
1654002955,05873,161508,2976712,100
1654002955,05873,161508,2976735,105
1654002955,05873,161508,2976759,105
1654002955,05873,161508,2976784,112
1654002955,05873,161508,2976809,124
1654002955,05873,161508,2976832,139
1654002955,05873,161508,2976856,158
1654002955,05873,161508,8827129,180
1654002955,05873,161508,8827362,195
1654002955,05873,161508,882741,210
1654002955,05873,161508,8827462,246
1654002955,05873,161508,8827494,291
1654002955,05873,161508,8827595,325
1654002955,05873,161508,8827717,349
1654002955,05873,161508,8827792,366
1654002955,05873,161508,882791,359
1654002955,05873,161508,8827987,335
1654002955,05873,161508,8828063,315
1654002955,05873,161508,8828138,269
1654002955,05873,161508,8828231,190
1654002955,05873,161508,8828305,112
1654002955,05873,161508,8828421,48
1654002955,05873,161508,8828487,-2
1654002955,05873,161508,882856,-31
1654002955,05873,161508,8828639,-36
1654002955,05873,161508,8828741,-36
1654002955,05873,161508,8828806,-46
1654002955,05873,161508,8828888,-58
1654002955,06873,161508,8828978,-53
1654002955,06873,161508,8829029,-39
1654002955,06873,161508,8829086,-26
1654002955,06873,161508,8829142,-17
1654002955,06873,161508,8829222,-9
1654002955,06873,161508,8829311,-7
1654002955,06873,161508,8829386,0
1654002955,06873,161508,8829462,9
1654002955,06873,161508,8829549,19
1654002955,06873,161508,8829646,24
1654002955,06873,161508,8829723,24
1654002955,06873,161508,882978,29
1654002955,06873,161508,8829827,34
1654002955,06873,161508,8829865,44
1654002955,06873,161508,8829898,48
1654002955,06873,161508,8829932,46
1654002955,06873,161508,8829965,41
1654002955,06873,161508,8830001,41
1654002955,06873,161508,8830039,41
1654002955,06873,161508,8830075,46
1654002955,06873,161508,8830111,53
1654002955,06873,161508,8830145,58
1654002955,06873,161508,883018,53
1654002955,06873,161508,8830215,51
1654002955,60184,161508,8830251,66
1654002955,60184,161508,8830286,68
1654002955,60184,161508,8830318,58
1654002955,60184,161508,8830355,58
1654002955,60184,161508,8830389,51
1654002955,60184,161508,8830425,46
1654002955,60184,161508,883046,56
1654002955,60184,161508,8830504,68
1654002955,60184,161508,8830538,68
1654002955,60184,161508,8830571,70
1654002955,60184,161508,8830605,83
1654002955,60184,161508,8830637,90
1654002955,60184,161508,8830675,102
1654002955,60184,161508,883071,110
1654002955,60184,161508,8830749,95
1654002955,60184,161508,8830786,80
1654002955,60184,161508,8830899,80
1654002955,60184,161508,8831037,78
1654002955,60184,161508,8831127,75
1654002955,60184,161508,8831208,85
1654002955,60184,161508,8831307,90
1654002955,60184,161508,8831369,78
1654002955,60184,161508,8831419,61
1654002955,60184,161508,8831496,83
1654002955,60184,161508,8831645,202
1654002955,60184,161508,8831751,484
1654002955,60184,161508,8831812,848
1654002955,60184,161508,8831853,909
1654002955,60184,161509,4225568,317
1654002955,60184,161509,4225842,-413
1654002955,60184,161509,4226004,-454
1654002955,60184,161509,422615,-122
1654002955,60184,161509,4226254,-14
1654002955,60184,161509,4226349,34
1654002955,60184,161509,4226425,102
1654002955,60184,161509,4226502,83
1654002955,60184,161509,422657,75
1654002955,60184,161509,4226646,114
1654002955,60184,161509,4226673,117
1654002955,60184,161509,4226695,102
1654002955,60184,161509,4226717,100
1654002955,60184,161509,4226739,105
1654002955,60184,161509,4226761,110
1654002955,60184,161509,4226785,119
1654002955,60184,161509,4226806,127
1654002955,60184,161509,4226827,136
1654002955,60184,161509,422685,149
1654002955,60184,161509,4226871,163
1654002955,60184,161509,4226893,193
1654002955,60184,161509,4226913,229
1654002955,61081,161509,4226935,259
1654002955,61081,161509,4226957,291
1654002955,61081,161509,4226978,317
1654002955,61081,161509,4227,339
1654002955,61081,161509,422702,357
1654002955,61081,161509,4227042,369
1654002955,61081,161509,4227063,366
1654002955,61081,161509,4227085,335
1654002955,61081,161509,4227106,271
1654002955,61081,161509,4227127,195
1654002955,61081,161509,4227149,132
1654002955,61081,161509,422717,73
1654002955,61081,161509,4227193,12
1654002955,61081,161509,422722,-19
1654002955,61081,161509,4227242,-24
